timestamp,GSR,PPG
6683.481271027,2367.052001953125,1302.5640869140625
6683.482661248,2367.052001953125,1303.2967529296875
6683.515006884,2364.56689453125,1304.029296875
6683.547491159,2364.56689453125,1306.959716796875
6683.54874074,2364.56689453125,1309.157470703125
6683.581070031,2362.087158203125,1309.89013671875
6683.582221411,2362.087158203125,1309.157470703125
6683.614893005,2362.087158203125,1308.4249267578125
6683.647345889,2362.087158203125,1308.4249267578125
6683.648500974,2359.6123046875,1308.4249267578125
6683.721021029,2362.087158203125,1311.3553466796875
6683.722186879,2362.087158203125,1309.89013671875
6683.723475071,2359.6123046875,1309.157470703125
6683.747559019,2359.6123046875,1312.087890625
6683.748895319,2359.6123046875,1313.5531005859375
6683.781119321,2359.6123046875,1314.2857666015625
6683.782234871,2357.142822265625,1314.2857666015625
6683.815007835,2357.142822265625,1316.4835205078125
6683.847490529,2357.142822265625,1315.7509765625
6683.848791062,2359.6123046875,1316.4835205078125
6683.881255356,2354.678466796875,1316.4835205078125
6683.882220162,2357.142822265625,1319.4139404296875
6683.915016214,2357.142822265625,1317.94873046875
6683.947493824,2357.142822265625,1317.94873046875
6683.948499786,2357.142822265625,1317.216064453125
6684.006638916,2354.678466796875,1317.216064453125
6684.00674312,2357.142822265625,1320.146484375
6684.008513263,2354.678466796875,1318.6812744140625
6684.039928172,2357.142822265625,1320.879150390625
6684.041000887,2357.142822265625,1318.6812744140625
6684.073470875,2359.6123046875,1317.94873046875
6684.106308098,2357.142822265625,1316.4835205078125
6684.107248574,2357.142822265625,1316.4835205078125
6684.140041643,2357.142822265625,1316.4835205078125
6684.145071591,2357.142822265625,1316.4835205078125
6684.177247445,2357.142822265625,1316.4835205078125
6684.182247776,2357.142822265625,1317.216064453125
6684.214992566,2357.142822265625,1317.216064453125
6684.222475643,2357.142822265625,1317.216064453125
6684.254779888,2357.142822265625,1317.216064453125
6684.313756225,2357.142822265625,1316.4835205078125
6684.314999066,2357.142822265625,1316.4835205078125
6684.316021417,2357.142822265625,1316.4835205078125
6684.348562923,2357.142822265625,1316.4835205078125
6684.34978494,2357.142822265625,1316.4835205078125
6684.382413654,2354.678466796875,1316.4835205078125
6684.383561441,2357.142822265625,1320.146484375
6684.416038017,2357.142822265625,1317.94873046875
6684.423858105,2357.142822265625,1317.94873046875
6684.456058122,2357.142822265625,1317.216064453125
6684.488518782,2359.6123046875,1316.4835205078125
6684.489693153,2357.142822265625,1315.7509765625
6684.522649618,2357.142822265625,1316.4835205078125
6684.523484682,2357.142822265625,1317.216064453125
6684.556246216,2357.142822265625,1317.216064453125
6684.563779887,2357.142822265625,1316.4835205078125
6684.606036624,2357.142822265625,1316.4835205078125
6684.60730105,2357.142822265625,1316.4835205078125
6684.640120909,2354.678466796875,1316.4835205078125
6684.644765705,2357.142822265625,1320.146484375
6684.677610613,2354.678466796875,1318.6812744140625
6684.678570529,2354.678466796875,1320.879150390625
6684.711284836,2352.21923828125,1322.3443603515625
6684.743850009,2352.21923828125,1321.6116943359375
6684.744770453,2352.21923828125,1320.879150390625
6684.777491148,2354.678466796875,1320.879150390625
6684.810069669,2352.21923828125,1322.3443603515625
6684.811475992,2352.21923828125,1321.6116943359375
6684.843742753,2349.76513671875,1320.879150390625
6684.845162408,2352.21923828125,1324.5421142578125
6684.909820099,2349.76513671875,1323.076904296875
6684.910959692,2349.76513671875,1325.2747802734375
6684.912294561,2349.76513671875,1326.7398681640625
6684.944863955,2347.31640625,1326.7398681640625
6684.946032553,2349.76513671875,1328.205078125
6684.988536588,2349.76513671875,1328.205078125
6684.989704952,2347.31640625,1327.4725341796875
6685.022710153,2347.31640625,1328.205078125
6685.023440005,2344.87255859375,1328.205078125
6685.056079525,2347.31640625,1332.6007080078125
6685.088844075,2347.31640625,1330.4029541015625
6685.089789276,2347.31640625,1330.4029541015625
6685.122422343,2344.87255859375,1328.937744140625
6685.123453506,2344.87255859375,1333.3333740234375
6685.156106819,2344.87255859375,1334.798583984375
6685.157316141,2344.87255859375,1335.5311279296875
6685.211136052,2342.43359375,1335.5311279296875
6685.21235627,2342.43359375,1334.798583984375
6685.244980173,2340.0,1334.06591796875
6685.245966358,2340.0,1337.7288818359375
6685.278786544,2342.43359375,1339.194091796875
6685.311315597,2340.0,1336.2637939453125
6685.312406538,2337.5712890625,1338.4615478515625
6685.345110863,2340.0,1340.6593017578125
6685.345964512,2337.5712890625,1340.6593017578125
6685.37981581,2337.5712890625,1341.3919677734375
6685.38099953,2337.5712890625,1342.12451171875
6685.413598758,2337.5712890625,1342.12451171875
6685.446237162,2335.147705078125,1342.857177734375
6685.447376036,2335.147705078125,1345.78759765625
6685.513586491,2332.729248046875,1347.9853515625
6685.514725737,2332.729248046875,1347.2528076171875
6685.515950828,2332.729248046875,1346.5201416015625
6685.548651039,2332.729248046875,1346.5201416015625
6685.549784146,2332.729248046875,1347.2528076171875
6685.582401996,2330.315673828125,1346.5201416015625
6685.583422752,2330.315673828125,1350.18310546875
6685.628693925,2330.315673828125,1351.6483154296875
6685.63023457,2327.906982421875,1352.3809814453125
6685.662704499,2327.906982421875,1353.84619140625
6685.663452416,2327.906982421875,1354.5787353515625
6685.696146425,2327.906982421875,1354.5787353515625
6685.728586569,2325.50341796875,1355.3114013671875
6685.729669551,2325.50341796875,1358.974365234375
6685.762490431,2323.104736328125,1360.4395751953125
6685.764851457,2325.50341796875,1359.7069091796875
6685.807390308,2323.104736328125,1361.172119140625
6685.808406345,2323.104736328125,1360.4395751953125
6685.841442613,2323.104736328125,1359.7069091796875
6685.842812945,2323.104736328125,1359.7069091796875
6685.87494924,2320.7109375,1358.974365234375
6685.907542898,2320.7109375,1362.6373291015625
6685.908802416,2318.322265625,1364.835205078125
6685.941367887,2315.938232421875,1366.3004150390625
6685.942403054,2315.938232421875,1370.6959228515625
6685.975129635,2315.938232421875,1372.1611328125
6685.97994126,2315.938232421875,1372.893798828125
6686.012394387,2315.938232421875,1374.3590087890625
6686.022624325,2315.938232421875,1374.3590087890625
6686.055165967,2315.938232421875,1373.6263427734375
6686.114893066,2313.559326171875,1374.3590087890625
6686.116075288,2313.559326171875,1372.893798828125
6686.117363789,2313.559326171875,1372.893798828125
6686.11860904,2311.185302734375,1372.893798828125
6686.151184809,2313.559326171875,1375.82421875
6686.183646452,2311.185302734375,1374.3590087890625
6686.184844573,2311.185302734375,1376.5567626953125
6686.217551907,2311.185302734375,1378.02197265625
6686.224942392,2311.185302734375,1378.754638671875
6686.268674954,2308.81591796875,1378.754638671875
6686.269823821,2308.81591796875,1380.2197265625
6686.30243444,2306.45166015625,1380.2197265625
6686.303680971,2306.45166015625,1383.8828125
6686.336241182,2304.092041015625,1386.08056640625
6686.342389479,2304.092041015625,1385.3480224609375
6686.406102927,2306.45166015625,1385.3480224609375
6686.407782132,2304.092041015625,1386.813232421875
6686.408622106,2301.7373046875,1386.08056640625
6686.441206474,2301.7373046875,1389.010986328125
6686.442357037,2304.092041015625,1390.4761962890625
6686.475139004,2301.7373046875,1388.2784423828125
6686.482745754,2301.7373046875,1389.7435302734375
6686.514864403,2299.387451171875,1391.208740234375
6686.547557675,2299.387451171875,1392.6739501953125
6686.548614595,2299.387451171875,1393.4066162109375
6686.58116146,2299.387451171875,1393.4066162109375
6686.582504868,2299.387451171875,1393.4066162109375
6686.614867081,2297.042236328125,1393.4066162109375
6686.619946828,2297.042236328125,1397.069580078125
6686.652453758,2294.701904296875,1398.5347900390625
6686.709898886,2294.701904296875,1243.223388671875
6686.7111622,2294.701904296875,1170.6959228515625
6686.712292767,2294.701904296875,1135.5311279296875
6686.744929558,2292.366455078125,1118.6812744140625
6686.746016072,2292.366455078125,1113.5531005859375
6686.778667714,2292.366455078125,1110.6226806640625
6686.779868354,2292.366455078125,1110.6226806640625
6686.812516206,2292.366455078125,1109.89013671875
6686.844897316,2292.366455078125,1109.157470703125
6686.846137536,2290.03564453125,1109.157470703125
6686.878648151,2287.70947265625,1109.157470703125
6686.908765027,2290.03564453125,1112.087890625
6686.909781766,2287.70947265625,1111.3553466796875
6686.942426205,2287.70947265625,1113.5531005859375
6686.943581931,2290.03564453125,1114.2857666015625
6687.007488807,2287.70947265625,1112.087890625
6687.008658648,2287.70947265625,1114.2857666015625
6687.009960508,2287.70947265625,1115.018310546875
6687.042432961,2283.071533203125,1115.018310546875
6687.043832522,2285.38818359375,1115.7509765625
6687.076157976,2283.071533203125,1113.5531005859375
6687.077403327,2283.071533203125,1115.018310546875
6687.109900742,2283.071533203125,1115.7509765625
6687.142418579,2283.071533203125,1115.7509765625
6687.143687736,2283.071533203125,1116.4835205078125
6687.176188766,2283.071533203125,1116.4835205078125
6687.18376907,2280.759521484375,1117.216064453125
6687.216093054,2283.071533203125,1117.216064453125
6687.217417788,2280.759521484375,1117.216064453125
6687.25022189,2280.759521484375,1117.216064453125
6687.312441655,2278.4521484375,1117.94873046875
6687.313587017,2278.4521484375,1120.879150390625
6687.314771222,2278.4521484375,1122.3443603515625
6687.339928453,2278.4521484375,1123.076904296875
6687.341075134,2276.149658203125,1123.8095703125
6687.376207952,2278.4521484375,1121.6116943359375
6687.377341465,2276.149658203125,1122.3443603515625
6687.410141953,2276.149658203125,1120.879150390625
6687.442461484,2276.149658203125,1119.4139404296875
6687.443518025,2276.149658203125,1119.4139404296875
6687.476182397,2276.149658203125,1119.4139404296875
6687.508693948,2276.149658203125,1119.4139404296875
6687.509982081,2273.8515625,1119.4139404296875
6687.548593844,2273.8515625,1122.3443603515625
6687.549810843,2273.8515625,1123.8095703125
6687.607423878,2273.8515625,1124.5421142578125
6687.608552266,2273.8515625,1125.2747802734375
6687.609788002,2273.8515625,1124.5421142578125
6687.642441804,2273.8515625,1125.2747802734375
6687.643587887,2273.8515625,1125.2747802734375
6687.676157745,2273.8515625,1125.2747802734375
6687.708862969,2271.558349609375,1125.2747802734375
6687.710335333,2276.149658203125,1126.00732421875
6687.742427911,2271.558349609375,1122.3443603515625
6687.743525333,2276.149658203125,1123.8095703125
6687.776182198,2271.558349609375,1121.6116943359375
6687.781225091,2271.558349609375,1123.8095703125
6687.814940434,2271.558349609375,1125.2747802734375
6687.849083039,2273.8515625,1126.00732421875
6687.849910232,2271.558349609375,1125.2747802734375
6687.908676832,2273.8515625,1126.00732421875
6687.909817892,2273.8515625,1126.00732421875
6687.911107402,2273.8515625,1125.2747802734375
6687.94387451,2271.558349609375,1125.2747802734375
6687.944843183,2273.8515625,1125.2747802734375
6687.977607874,2273.8515625,1125.2747802734375
6687.982426135,2273.8515625,1125.2747802734375
6688.014938582,2273.8515625,1125.2747802734375
6688.01609122,2273.8515625,1125.2747802734375
6688.049085865,2273.8515625,1125.2747802734375
6688.081115652,2271.558349609375,1125.2747802734375
6688.082364689,2273.8515625,1126.00732421875
6688.114880652,2273.8515625,1125.2747802734375
6688.147355873,2273.8515625,1125.2747802734375
6688.14855216,2276.149658203125,1125.2747802734375
6688.221426814,2273.8515625,1122.3443603515625
6688.222458928,2273.8515625,1123.8095703125
6688.223653471,2273.8515625,1124.5421142578125
6688.226088205,2273.8515625,1125.2747802734375
6688.258617341,2273.8515625,1125.2747802734375
6688.259846206,2273.8515625,1125.2747802734375
6688.292342661,2276.149658203125,1125.2747802734375
6688.32488825,2276.149658203125,1122.3443603515625
6688.331238063,2273.8515625,1120.879150390625
6688.363624737,2276.149658203125,1123.076904296875
6688.366137429,2276.149658203125,1120.879150390625
6688.397523312,2273.8515625,1120.146484375
6688.39867914,2276.149658203125,1122.3443603515625
6688.431536683,2276.149658203125,1120.879150390625
6688.463723136,2276.149658203125,1120.146484375
6688.464842159,2276.149658203125,1119.4139404296875
6688.508742939,2276.149658203125,1118.6812744140625
6688.509867331,2278.4521484375,1119.4139404296875
6688.542449241,2273.8515625,1121.6116943359375
6688.54363689,2276.149658203125,1123.8095703125
6688.576256499,2276.149658203125,1120.879150390625
6688.577418707,2278.4521484375,1120.146484375
6688.609956289,2278.4521484375,1122.3443603515625
6688.642473194,2273.8515625,1122.3443603515625
6688.64392587,2278.4521484375,1123.8095703125
6688.6764135,2276.149658203125,1123.8095703125
6688.677296195,2278.4521484375,1120.879150390625
6688.735155923,2278.4521484375,1122.3443603515625
6688.73635501,2276.149658203125,1122.3443603515625
6688.737346602,2276.149658203125,1120.879150390625
6688.769883085,2278.4521484375,1120.146484375
6688.839471056,2276.149658203125,1121.6116943359375
6688.839751553,2278.4521484375,1120.146484375
6688.841016175,2276.149658203125,1122.3443603515625
6688.842264584,2278.4521484375,1120.879150390625
6688.874859872,2276.149658203125,1122.3443603515625
6688.87605092,2276.149658203125,1120.879150390625
6688.908631463,2278.4521484375,1120.146484375
6688.941150357,2276.149658203125,1121.6116943359375
6688.94243105,2278.4521484375,1120.879150390625
6688.974947221,2278.4521484375,1122.3443603515625
6688.976108159,2278.4521484375,1123.076904296875
6689.008892434,2278.4521484375,1123.076904296875
6689.041223735,2278.4521484375,1123.076904296875
6689.107487726,2278.4521484375,1123.8095703125
6689.108628168,2278.4521484375,1123.8095703125
6689.109827997,2280.759521484375,1123.076904296875
6689.111067446,2278.4521484375,1120.146484375
6689.143694554,2278.4521484375,1121.6116943359375
6689.14481938,2278.4521484375,1123.076904296875
6689.177417222,2278.4521484375,1123.076904296875
6689.178761353,2280.759521484375,1123.076904296875
6689.211560355,2280.759521484375,1120.146484375
6689.243942506,2280.759521484375,1118.6812744140625
6689.244905649,2280.759521484375,1118.6812744140625
6689.277489564,2280.759521484375,1117.94873046875
6689.282344787,2280.759521484375,1117.94873046875
6689.315034607,2280.759521484375,1117.216064453125
6689.320039714,2280.759521484375,1117.94873046875
6689.352416752,2280.759521484375,1117.216064453125
6689.359989864,2280.759521484375,1117.216064453125
6689.410159806,2280.759521484375,1117.216064453125
6689.411652355,2280.759521484375,1117.94873046875
6689.46864855,2278.4521484375,1117.94873046875
6689.469815286,2280.759521484375,1120.879150390625
6689.471018449,2278.4521484375,1118.6812744140625
6689.503830631,2280.759521484375,1120.879150390625
6689.505333657,2278.4521484375,1119.4139404296875
6689.537353973,2280.759521484375,1120.879150390625
6689.538527141,2280.759521484375,1119.4139404296875
6689.571179966,2283.071533203125,1118.6812744140625
6689.603593637,2280.759521484375,1117.94873046875
6689.604779826,2280.759521484375,1117.94873046875
6689.637475717,2280.759521484375,1117.216064453125
6689.63860385,2283.071533203125,1117.94873046875
6689.671360945,2283.071533203125,1117.216064453125
6689.706346968,2283.071533203125,1116.4835205078125
6689.707348504,2283.071533203125,1117.216064453125
6689.739956621,2280.759521484375,1116.4835205078125
6689.741196302,2283.071533203125,1116.4835205078125
6689.77370513,2280.759521484375,1116.4835205078125
6689.774866699,2280.759521484375,1117.216064453125
6689.807666788,2283.071533203125,1117.216064453125
6689.840025076,2283.071533203125,1116.4835205078125
6689.841246835,2283.071533203125,1117.216064453125
6689.873834242,2280.759521484375,1116.4835205078125
6689.883692006,2285.38818359375,1117.216064453125
6689.916403832,2283.071533203125,1113.5531005859375
6689.948935802,2283.071533203125,1115.7509765625
6689.950310451,2280.759521484375,1115.7509765625
6689.982631784,2283.071533203125,1116.4835205078125
6689.983652544,2280.759521484375,1116.4835205078125
6690.016143037,2280.759521484375,1117.216064453125
6690.023785044,2280.759521484375,1117.216064453125
6690.061155294,2283.071533203125,1117.216064453125
6690.062281433,2280.759521484375,1117.216064453125
6690.108885274,2280.759521484375,1117.216064453125
6690.109859353,2280.759521484375,1117.216064453125
6690.14262672,2280.759521484375,1117.94873046875
6690.143731291,2283.071533203125,1117.216064453125
6690.17650394,2283.071533203125,1117.216064453125
6690.177392186,2283.071533203125,1117.216064453125
6690.21005643,2283.071533203125,1116.4835205078125
6690.242564822,2283.071533203125,1116.4835205078125
6690.243610716,2283.071533203125,1116.4835205078125
6690.306484286,2283.071533203125,1116.4835205078125
6690.308801913,2283.071533203125,1116.4835205078125
6690.308945588,2285.38818359375,1116.4835205078125
6690.341228646,2283.071533203125,1113.5531005859375
6690.342320373,2285.38818359375,1115.018310546875
6690.374902322,2285.38818359375,1112.820556640625
6690.407614032,2287.70947265625,1112.087890625
6690.408658343,2290.03564453125,1113.5531005859375
6690.441284084,2301.7373046875,1110.6226806640625
6690.442366262,2301.7373046875,1259.3406982421875
6690.474902675,2306.45166015625,1328.205078125
6690.47633935,2308.81591796875,1358.974365234375
6690.508694307,2313.559326171875,1369.96337890625
6690.54128341,2313.559326171875,1370.6959228515625
6690.542332095,2311.185302734375,1371.4285888671875
6690.607623796,2308.81591796875,1375.091552734375
6690.608639846,2306.45166015625,1378.02197265625
6690.609886633,2304.092041015625,1382.4176025390625
6690.642570273,2304.092041015625,1383.8828125
6690.643574904,2308.81591796875,1384.6153564453125
6690.676325583,2308.81591796875,1382.4176025390625
6690.683884224,2313.559326171875,1381.6849365234375
6690.716309813,2318.322265625,1376.5567626953125
6690.722494281,2320.7109375,1371.4285888671875
6690.749925395,2323.104736328125,1368.4981689453125
6690.757357578,2323.104736328125,1363.3699951171875
6690.790081178,2327.906982421875,1361.172119140625
6690.822750013,2332.729248046875,1357.5091552734375
6690.823618249,2332.729248046875,1351.6483154296875
6690.856296442,2330.315673828125,1348.7178955078125
6690.862628608,2330.315673828125,1350.915771484375
6690.906441819,2332.729248046875,1351.6483154296875
6690.907858402,2335.147705078125,1349.4505615234375
6690.940269151,2337.5712890625,1348.7178955078125
6690.941110741,2349.76513671875,1345.78759765625
6690.973742307,2377.044921875,1335.5311279296875
6690.978861967,2387.122314453125,1314.2857666015625
6691.011255014,2389.6552734375,1298.16845703125
6691.044011162,2392.193359375,1289.3773193359375
6691.045346361,2394.73681640625,1282.05126953125
6691.077625284,2387.122314453125,1279.853515625
6691.078716775,2382.072998046875,1282.05126953125
6691.111610248,2382.072998046875,1284.2490234375
6691.143999884,2379.55615234375,1285.7142333984375
6691.144955226,2377.044921875,1289.3773193359375
6691.206292074,2369.542236328125,1292.3077392578125
6691.207577966,2369.542236328125,1297.4359130859375
6691.20869883,2367.052001953125,1299.6336669921875
6691.24128938,2364.56689453125,1301.83154296875
6691.242581455,2364.56689453125,1306.959716796875
6691.275140196,2364.56689453125,1308.4249267578125
6691.276298892,2362.087158203125,1309.157470703125
6691.30904046,2362.087158203125,1308.4249267578125
6691.341312089,2359.6123046875,1308.4249267578125
6691.342513427,2359.6123046875,1312.087890625
6691.388885614,2359.6123046875,1313.5531005859375
6691.390231141,2359.6123046875,1314.2857666015625
6691.398814962,2357.142822265625,1314.2857666015625
6691.431215989,2359.6123046875,1315.7509765625
6691.463883531,2357.142822265625,1315.7509765625
6691.465338157,2359.6123046875,1315.7509765625
6691.508813297,2357.142822265625,1315.7509765625
6691.509957511,2362.087158203125,1315.7509765625
6691.54255182,2362.087158203125,1312.087890625
6691.543699239,2362.087158203125,1309.89013671875
6691.576295814,2362.087158203125,1309.157470703125
6691.577440411,2362.087158203125,1309.157470703125
6691.610176966,2362.087158203125,1308.4249267578125
6691.64277874,2364.56689453125,1308.4249267578125
6691.643795822,2364.56689453125,1309.89013671875
6691.676589717,2364.56689453125,1309.89013671875
6691.682459155,2372.037841796875,1309.89013671875
6691.715112024,2374.538818359375,1302.5640869140625
6691.716188416,2372.037841796875,1301.83154296875
6691.748818301,2379.55615234375,1298.16845703125
6691.821275678,2382.072998046875,1295.970703125
6691.822521403,2382.072998046875,1290.842529296875
6691.823787545,2382.072998046875,1289.3773193359375
6691.82497479,2377.044921875,1287.912109375
6691.857519196,2377.044921875,1290.842529296875
6691.858705509,2382.072998046875,1293.77294921875
6691.891226294,2382.072998046875,1289.3773193359375
6691.896286888,2382.072998046875,1287.912109375
6691.928879394,2384.594970703125,1287.179443359375
6691.961268232,2382.072998046875,1288.6446533203125
6691.96240034,2379.55615234375,1287.912109375
6691.995132977,2379.55615234375,1290.10986328125
6692.000038357,2377.044921875,1291.5750732421875
6692.029019444,2377.044921875,1293.77294921875
6692.061500346,2377.044921875,1294.5054931640625
6692.062941811,2374.538818359375,1294.5054931640625
6692.107783537,2372.037841796875,1298.16845703125
6692.10918673,2374.538818359375,1296.7032470703125
6692.141569638,2372.037841796875,1299.6336669921875
6692.143612877,2369.542236328125,1297.4359130859375
6692.175257703,2369.542236328125,1299.6336669921875
6692.176285278,2369.542236328125,1301.098876953125
6692.209042589,2367.052001953125,1301.83154296875
6692.241504447,2369.542236328125,1302.5640869140625
6692.242526384,2367.052001953125,1301.83154296875
6692.275254845,2367.052001953125,1303.2967529296875
6692.280036791,2367.052001953125,1303.2967529296875
6692.312492165,2367.052001953125,1304.029296875
6692.345112902,2364.56689453125,1304.029296875
6692.346335801,2367.052001953125,1307.6922607421875
6692.410142354,2364.56689453125,1305.4945068359375
6692.411265684,2362.087158203125,1308.4249267578125
6692.412387097,2364.56689453125,1308.4249267578125
6692.421401633,2362.087158203125,1309.89013671875
6692.453774069,2364.56689453125,1309.157470703125
6692.486494646,2364.56689453125,1309.89013671875
6692.487537261,2362.087158203125,1309.89013671875
6692.520312182,2362.087158203125,1309.157470703125
6692.521326649,2362.087158203125,1308.4249267578125
6692.554031168,2362.087158203125,1308.4249267578125
6692.554999439,2362.087158203125,1308.4249267578125
6692.587877935,2362.087158203125,1308.4249267578125
6692.620264421,2359.6123046875,1308.4249267578125
6692.621278325,2362.087158203125,1312.087890625
6692.669095307,2359.6123046875,1309.89013671875
6692.670212165,2359.6123046875,1312.087890625
6692.707501285,2362.087158203125,1313.5531005859375
6692.708724267,2359.6123046875,1310.6226806640625
6692.742726269,2357.142822265625,1312.820556640625
6692.743738199,2359.6123046875,1315.018310546875
6692.776514209,2359.6123046875,1315.018310546875
6692.777767752,2359.6123046875,1315.018310546875
6692.810289526,2359.6123046875,1315.018310546875
6692.815029667,2362.087158203125,1314.2857666015625
6692.847597058,2359.6123046875,1311.3553466796875
6692.879969068,2357.142822265625,1313.5531005859375
6692.881145592,2362.087158203125,1315.018310546875
6692.913868144,2362.087158203125,1311.3553466796875
6692.921329956,2362.087158203125,1309.89013671875
6692.95379467,2362.087158203125,1308.4249267578125
6693.00497612,2362.087158203125,1308.4249267578125
6693.006177883,2362.087158203125,1308.4249267578125
6693.007424272,2362.087158203125,1308.4249267578125
6693.0400122,2359.6123046875,1308.4249267578125
6693.041150647,2362.087158203125,1312.087890625
6693.074045968,2359.6123046875,1309.89013671875
6693.076599634,2359.6123046875,1312.087890625
6693.108840313,2359.6123046875,1313.5531005859375
6693.141314746,2357.142822265625,1315.018310546875
6693.142449991,2357.142822265625,1315.7509765625
6693.176783095,2354.678466796875,1315.7509765625
6693.176878691,2354.678466796875,1320.146484375
6693.208775983,2357.142822265625,1321.6116943359375
6693.241553209,2357.142822265625,1319.4139404296875
6693.242925426,2357.142822265625,1317.94873046875
6693.314959671,2357.142822265625,1317.216064453125
6693.316279175,2359.6123046875,1317.216064453125
6693.317384631,2357.142822265625,1315.7509765625
6693.336293504,2359.6123046875,1316.4835205078125
6693.337698848,2362.087158203125,1315.7509765625
6693.370153864,2364.56689453125,1312.087890625
6693.402570679,2367.052001953125,1311.3553466796875
6693.403721033,2367.052001953125,1306.959716796875
6693.436271765,2367.052001953125,1305.4945068359375
6693.441294844,2367.052001953125,1304.761962890625
6693.473783115,2364.56689453125,1304.029296875
6693.475069661,2364.56689453125,1307.6922607421875
6693.507832643,2367.052001953125,1309.157470703125
6693.54031713,2367.052001953125,1306.22705078125
6693.541696374,2369.542236328125,1304.761962890625
6693.610078427,2369.542236328125,1303.2967529296875
6693.611315229,2369.542236328125,1302.5640869140625
6693.612511969,2369.542236328125,1302.5640869140625
6693.613702773,2369.542236328125,1302.5640869140625
6693.646232841,2369.542236328125,1302.5640869140625
6693.678908139,2369.542236328125,1301.83154296875
6693.679988698,2374.538818359375,1301.83154296875
6693.712474318,2377.044921875,1301.83154296875
6693.74506025,2377.044921875,1298.16845703125
6693.746219437,2377.044921875,1296.7032470703125
6693.779110939,2379.55615234375,1295.970703125
6693.7799951,2379.55615234375,1294.5054931640625
6693.812538173,2382.072998046875,1293.77294921875
6693.813748976,2382.072998046875,1290.842529296875
6693.846203512,2384.594970703125,1288.6446533203125
6693.915028159,2384.594970703125,1288.6446533203125
6693.916204267,2384.594970703125,1290.10986328125
6693.917420704,2387.122314453125,1290.10986328125
6693.918662454,2387.122314453125,1286.4468994140625
6693.948748308,2389.6552734375,1284.981689453125
6693.95629782,2387.122314453125,1283.5164794921875
6693.988813798,2387.122314453125,1283.5164794921875
6694.021279814,2389.6552734375,1283.5164794921875
6694.022427372,2389.6552734375,1282.05126953125
6694.055075686,2392.193359375,1281.3187255859375
6694.056211377,2394.73681640625,1278.3883056640625
6694.08900863,2397.285888671875,1277.6556396484375
6694.121433412,2392.193359375,1273.99267578125
6694.122490628,2392.193359375,1274.7252197265625
6694.155157379,2392.193359375,1274.7252197265625
6694.156254556,2389.6552734375,1274.7252197265625
6694.20878516,2389.6552734375,1278.3883056640625
6694.209950685,2389.6552734375,1279.853515625
6694.242602962,2392.193359375,1280.5860595703125
6694.243725166,2392.193359375,1277.6556396484375
6694.276423574,2392.193359375,1276.1904296875
6694.277484714,2389.6552734375,1276.1904296875
6694.310228125,2397.285888671875,1279.120849609375
6694.317633938,2402.39990234375,1274.7252197265625
6694.350020999,2410.1123046875,1268.1318359375
6694.382755368,2410.1123046875,1262.2711181640625
6694.383759704,2407.5361328125,1260.0732421875
6694.416404216,2407.5361328125,1260.0732421875
6694.417669804,2407.5361328125,1260.0732421875
6694.451443033,2412.694091796875,1259.3406982421875
6694.512546768,2425.6865234375,1254.945068359375
6694.5141911,2438.81982421875,1248.3516845703125
6694.515424805,2446.76806640625,1235.164794921875
6694.5164154,2441.46337890625,1227.106201171875
6694.548777632,2441.46337890625,1224.17578125
6694.589081316,2444.11279296875,1223.4432373046875
6694.589935526,2454.768310546875,1219.047607421875
6694.596686513,2457.44677734375,1211.7215576171875
6694.628739757,2465.517333984375,1210.989013671875
6694.661346793,2470.927001953125,1202.930419921875
6694.662525159,2468.21923828125,1197.80224609375
6694.695031082,2457.44677734375,1199.2674560546875
6694.696646208,2438.81982421875,1205.128173828125
6694.728739921,2433.54931640625,1214.6519775390625
6694.733883519,2430.9228515625,1220.5128173828125
6694.766401246,2425.6865234375,1227.8388671875
6694.806679195,2417.87451171875,1234.4322509765625
6694.807424117,2415.281494140625,1240.2930908203125
6694.8403227,2410.1123046875,1246.15380859375
6694.841472722,2410.1123046875,1252.0146484375
6694.873806538,2407.5361328125,1254.945068359375
6694.878814696,2404.96533203125,1257.87548828125
6694.911501776,2404.96533203125,1262.2711181640625
6694.912487017,2404.96533203125,1264.4688720703125
6694.945231456,2404.96533203125,1265.201416015625
6694.977748447,2402.39990234375,1265.93408203125
6694.978795449,2402.39990234375,1264.4688720703125
6695.011393238,2399.840087890625,1263.7362060546875
6695.01892232,2399.840087890625,1266.6666259765625
6695.051666504,2397.285888671875,1268.864501953125
6695.052890788,2399.840087890625,1269.5970458984375
6695.112559341,2404.96533203125,1269.5970458984375
6695.11368003,2410.1123046875,1268.1318359375
6695.114914918,2415.281494140625,1262.2711181640625
6695.147918548,2412.694091796875,1257.142822265625
6695.180186098,2407.5361328125,1254.21240234375
6695.18198919,2407.5361328125,1257.142822265625
6695.229156778,2404.96533203125,1258.6080322265625
6695.230446538,2404.96533203125,1263.003662109375
6695.231442182,2404.96533203125,1264.4688720703125
6695.263831118,2404.96533203125,1265.93408203125
6695.296643397,2399.840087890625,1265.93408203125
6695.297481405,2402.39990234375,1268.1318359375
6695.329980717,2402.39990234375,1265.201416015625
6695.362751621,2402.39990234375,1263.7362060546875
6695.364013856,2399.840087890625,1263.7362060546875
6695.407529227,2397.285888671875,1266.6666259765625
6695.408672741,2402.39990234375,1268.864501953125
6695.436613648,2402.39990234375,1265.93408203125
6695.437448139,2402.39990234375,1263.7362060546875
6695.470302485,2402.39990234375,1263.003662109375
6695.502999595,2402.39990234375,1263.003662109375
6695.503751733,2402.39990234375,1263.003662109375
6695.536691532,2397.285888671875,1263.003662109375
6695.537951172,2399.840087890625,1267.3992919921875
6695.570279299,2399.840087890625,1268.864501953125
6695.575141764,2397.285888671875,1268.864501953125
6695.607518791,2399.840087890625,1269.5970458984375
6695.64013555,2397.285888671875,1269.5970458984375
6695.641286011,2397.285888671875,1270.3297119140625
6695.71146971,2397.285888671875,1270.3297119140625
6695.712927109,2397.285888671875,1271.062255859375
6695.714018635,2394.73681640625,1271.062255859375
6695.71507606,2394.73681640625,1274.7252197265625
6695.747657249,2394.73681640625,1276.1904296875
6695.780323067,2394.73681640625,1276.923095703125
6695.781516741,2392.193359375,1277.6556396484375
6695.813965318,2392.193359375,1276.923095703125
6695.815104374,2392.193359375,1275.4578857421875
6695.869096227,2392.193359375,1275.4578857421875
6695.870122389,2392.193359375,1274.7252197265625
6695.871340186,2387.122314453125,1274.7252197265625
6695.90389798,2387.122314453125,1279.120849609375
6695.936492872,2387.122314453125,1281.3187255859375
6695.937424721,2387.122314453125,1282.783935546875
6695.970303229,2389.6552734375,1282.783935546875
6696.011400951,2389.6552734375,1282.05126953125
6696.012625256,2387.122314453125,1282.05126953125
6696.013657637,2389.6552734375,1282.783935546875
6696.046484314,2387.122314453125,1282.05126953125
6696.079017288,2384.594970703125,1282.783935546875
6696.08008408,2387.122314453125,1286.4468994140625
6696.112700692,2387.122314453125,1284.981689453125
6696.11761972,2387.122314453125,1283.5164794921875
6696.150102715,2387.122314453125,1283.5164794921875
6696.182597401,2387.122314453125,1282.783935546875
6696.183791478,2387.122314453125,1282.783935546875
6696.216338037,2387.122314453125,1282.783935546875
6696.21760339,2387.122314453125,1283.5164794921875
6696.250444187,2384.594970703125,1283.5164794921875
6696.257787296,2384.594970703125,1286.4468994140625
6696.320183306,2384.594970703125,1288.6446533203125
6696.321305961,2379.55615234375,1288.6446533203125
6696.322593752,2377.044921875,1290.842529296875
6696.355306372,2374.538818359375,1293.040283203125
6696.356579442,2374.538818359375,1297.4359130859375
6696.389023381,2374.538818359375,1299.6336669921875
6696.396399253,2374.538818359375,1301.098876953125
6696.428895364,2374.538818359375,1301.098876953125
6696.461379072,2372.037841796875,1301.098876953125
6696.462729211,2374.538818359375,1298.16845703125
6696.50912714,2369.542236328125,1299.6336669921875
6696.510570608,2372.037841796875,1301.098876953125
6696.511392071,2372.037841796875,1298.16845703125
6696.544283163,2372.037841796875,1296.7032470703125
6696.611575618,2369.542236328125,1295.970703125
6696.612581726,2369.542236328125,1298.901123046875
6696.613776224,2369.542236328125,1300.3663330078125
6696.620151952,2367.052001953125,1301.83154296875
6696.652645569,2364.56689453125,1302.5640869140625
6696.653775533,2364.56689453125,1306.959716796875
6696.686437113,2364.56689453125,1309.157470703125
6696.71913202,2362.087158203125,1309.89013671875
6696.720095506,2362.087158203125,1309.157470703125
6696.752795332,2357.142822265625,1308.4249267578125
6696.757598841,2359.6123046875,1312.820556640625
6696.790368225,2359.6123046875,1313.5531005859375
6696.82271564,2357.142822265625,1314.2857666015625
6696.823973373,2354.678466796875,1315.7509765625
6696.856621533,2354.678466796875,1319.4139404296875
6696.857596703,2357.142822265625,1321.6116943359375
6696.914181323,2354.678466796875,1318.6812744140625
6696.915541738,2354.678466796875,1321.6116943359375
6696.916375387,2352.21923828125,1322.3443603515625
6696.948951277,2352.21923828125,1321.6116943359375
6696.981641673,2349.76513671875,1321.6116943359375
6696.98304135,2349.76513671875,1324.5421142578125
6697.015188958,2347.31640625,1326.00732421875
6697.016333016,2347.31640625,1327.4725341796875
6697.04915235,2347.31640625,1328.937744140625
6697.056368679,2349.76513671875,1328.937744140625
6697.089119137,2347.31640625,1328.205078125
6697.121379656,2347.31640625,1328.937744140625
6697.12256025,2347.31640625,1328.937744140625
6697.150331719,2342.43359375,1328.937744140625
6697.151717841,2344.87255859375,1331.8681640625
6697.206369428,2342.43359375,1334.06591796875
6697.20764204,2342.43359375,1333.3333740234375
6697.240225575,2342.43359375,1333.3333740234375
6697.241496808,2342.43359375,1333.3333740234375
6697.273870655,2337.5712890625,1333.3333740234375
6697.275052324,2340.0,1337.7288818359375
6697.307718571,2337.5712890625,1339.194091796875
6697.312859614,2335.147705078125,1340.6593017578125
6697.345141593,2335.147705078125,1345.054931640625
6697.377796946,2330.315673828125,1347.2528076171875
6697.37894098,2330.315673828125,1350.18310546875
6697.411494952,2330.315673828125,1351.6483154296875
6697.416345022,2327.906982421875,1352.3809814453125
6697.448925853,2327.906982421875,1353.113525390625
6697.450052785,2325.50341796875,1353.84619140625
6697.51140967,2323.104736328125,1358.24169921875
6697.512581508,2325.50341796875,1358.24169921875
6697.513823716,2323.104736328125,1359.7069091796875
6697.546438051,2323.104736328125,1359.7069091796875
6697.579121986,2320.7109375,1358.974365234375
6697.58036978,2320.7109375,1362.6373291015625
6697.612718688,2315.938232421875,1364.1025390625
6697.614257589,2318.322265625,1369.230712890625
6697.647672823,2315.938232421875,1368.4981689453125
6697.680372011,2315.938232421875,1371.4285888671875
6697.681362733,2315.938232421875,1372.893798828125
6697.714132378,2313.559326171875,1373.6263427734375
6697.715162294,2313.559326171875,1372.893798828125
6697.7478812,2311.185302734375,1372.893798828125
6697.820395654,2311.185302734375,1375.82421875
6697.821450557,2311.185302734375,1377.2894287109375
6697.822525251,2308.81591796875,1378.754638671875
6697.828990777,2308.81591796875,1379.4871826171875
6697.835220391,2306.45166015625,1380.2197265625
6697.867668005,2306.45166015625,1383.8828125
6697.900128106,2306.45166015625,1385.3480224609375
6697.901385357,2304.092041015625,1386.08056640625
6697.933857133,2304.092041015625,1385.3480224609375
6697.935180179,2304.092041015625,1385.3480224609375
6697.967770318,2304.092041015625,1385.3480224609375
6697.972595329,2304.092041015625,1385.3480224609375
6698.005130169,2301.7373046875,1384.6153564453125
6698.037871514,2299.387451171875,1388.2784423828125
6698.03910705,2299.387451171875,1391.208740234375
6698.071493801,2299.387451171875,1392.6739501953125
6698.107689545,2297.042236328125,1392.6739501953125
6698.108835837,2297.042236328125,1397.069580078125
6698.110079753,2297.042236328125,1398.5347900390625
6698.142730083,2297.042236328125,1399.2674560546875
6698.17519331,2297.042236328125,1400.0
6698.176317922,2299.387451171875,1400.0
6698.208985811,2297.042236328125,1397.069580078125
6698.241491971,2297.042236328125,1399.2674560546875
6698.242593018,2297.042236328125,1399.2674560546875
6698.275434267,2294.701904296875,1399.2674560546875
6698.281456123,2294.701904296875,1243.9560546875
6698.314112921,2294.701904296875,1170.6959228515625
6698.315076125,2294.701904296875,1135.5311279296875
6698.347936596,2297.042236328125,1118.6812744140625
6698.420317963,2294.701904296875,1267.3992919921875
6698.42176885,2292.366455078125,1180.2197265625
6698.423060608,2292.366455078125,1142.857177734375
6698.442896743,2292.366455078125,1124.5421142578125
6698.44391629,2290.03564453125,1116.4835205078125
6698.476374353,2290.03564453125,1112.820556640625
6698.477538918,2290.03564453125,1111.3553466796875
6698.51020288,2290.03564453125,1109.89013671875
6698.515146351,2287.70947265625,1109.89013671875
6698.547672659,2290.03564453125,1112.087890625
6698.580479293,2290.03564453125,1111.3553466796875
6698.581438497,2290.03564453125,1109.89013671875
6698.61406206,2287.70947265625,1109.89013671875
6698.615591705,2287.70947265625,1112.820556640625
6698.6477343,2287.70947265625,1113.5531005859375
6698.711623637,2287.70947265625,1115.018310546875
6698.712863712,2287.70947265625,1115.018310546875
6698.713860676,2285.38818359375,1115.018310546875
6698.721622844,2287.70947265625,1112.820556640625
6698.754065818,2287.70947265625,1113.5531005859375
6698.755109062,2285.38818359375,1115.018310546875
6698.787881814,2287.70947265625,1112.820556640625
6698.795152611,2285.38818359375,1114.2857666015625
6698.827698135,2287.70947265625,1112.087890625
6698.86029269,2285.38818359375,1113.5531005859375
6698.861757306,2287.70947265625,1112.087890625
6698.894010305,2285.38818359375,1113.5531005859375
6698.895068572,2285.38818359375,1112.087890625
6698.927696155,2287.70947265625,1111.3553466796875
6698.932651878,2285.38818359375,1113.5531005859375
6698.965205033,2285.38818359375,1112.087890625
6699.008967185,2285.38818359375,1111.3553466796875
6699.01003254,2287.70947265625,1110.6226806640625
6699.017696495,2285.38818359375,1112.820556640625
6699.068976879,2287.70947265625,1112.087890625
6699.070138107,2285.38818359375,1113.5531005859375
6699.07129275,2285.38818359375,1112.087890625
6699.103913804,2285.38818359375,1111.3553466796875
6699.136458031,2283.071533203125,1110.6226806640625
6699.137674584,2285.38818359375,1113.5531005859375
6699.170230703,2285.38818359375,1112.087890625
6699.177635752,2285.38818359375,1111.3553466796875
6699.210210283,2285.38818359375,1110.6226806640625
6699.211284652,2287.70947265625,1110.6226806640625
6699.243870176,2285.38818359375,1113.5531005859375
6699.305239965,2283.071533203125,1111.3553466796875
6699.306314087,2285.38818359375,1114.2857666015625
6699.307554987,2285.38818359375,1112.087890625
6699.340151491,2285.38818359375,1111.3553466796875
6699.341382782,2283.071533203125,1110.6226806640625
6699.373869937,2283.071533203125,1113.5531005859375
6699.375132053,2285.38818359375,1115.018310546875
6699.407662152,2283.071533203125,1112.820556640625
6699.412635675,2283.071533203125,1115.018310546875
6699.445162949,2283.071533203125,1115.7509765625
6699.458955623,2285.38818359375,1116.4835205078125
6699.491434718,2283.071533203125,1112.820556640625
6699.49760846,2283.071533203125,1115.018310546875
6699.530142173,2285.38818359375,1115.7509765625
6699.56261144,2283.071533203125,1113.5531005859375
6699.564093298,2283.071533203125,1114.2857666015625
6699.617675983,2280.759521484375,1115.7509765625
6699.618798089,2283.071533203125,1116.4835205078125
6699.620407994,2283.071533203125,1116.4835205078125
6699.652704066,2280.759521484375,1116.4835205078125
6699.653850395,2280.759521484375,1116.4835205078125
6699.708926866,2283.071533203125,1116.4835205078125
6699.710522898,2283.071533203125,1116.4835205078125
6699.711331759,2280.759521484375,1116.4835205078125
6699.743906692,2283.071533203125,1116.4835205078125
6699.776612287,2280.759521484375,1116.4835205078125
6699.77761522,2283.071533203125,1116.4835205078125
6699.810462311,2280.759521484375,1116.4835205078125
6699.815171315,2283.071533203125,1117.216064453125
6699.847716249,2283.071533203125,1116.4835205078125
6699.848868024,2280.759521484375,1116.4835205078125
6699.907610795,2280.759521484375,1116.4835205078125
6699.908818214,2283.071533203125,1117.216064453125
6699.915192959,2280.759521484375,1116.4835205078125
6699.947639681,2280.759521484375,1117.216064453125
6699.98013173,2280.759521484375,1117.216064453125
6699.981783273,2280.759521484375,1117.216064453125
6700.013902665,2280.759521484375,1117.216064453125
6700.015131633,2280.759521484375,1117.216064453125
6700.047659541,2280.759521484375,1116.4835205078125
6700.048853769,2278.4521484375,1117.216064453125
6700.081502587,2278.4521484375,1120.146484375
6700.115359535,2278.4521484375,1121.6116943359375
6700.116624211,2278.4521484375,1122.3443603515625
6700.148888768,2278.4521484375,1123.076904296875
6700.156406528,2278.4521484375,1123.076904296875
6700.210544434,2278.4521484375,1123.076904296875
6700.211339187,2278.4521484375,1122.3443603515625
6700.212540982,2276.149658203125,1123.076904296875
6700.245194304,2278.4521484375,1120.146484375
6700.27770212,2276.149658203125,1122.3443603515625
6700.278830877,2278.4521484375,1120.879150390625
6700.31151093,2278.4521484375,1121.6116943359375
6700.316592712,2278.4521484375,1122.3443603515625
6700.348948777,2278.4521484375,1123.076904296875
6700.350026645,2278.4521484375,1123.076904296875
6700.382789791,2278.4521484375,1123.076904296875
6700.415342368,2276.149658203125,1123.076904296875
6700.416360442,2278.4521484375,1120.879150390625
6700.449143713,2278.4521484375,1122.3443603515625
6700.510389551,2278.4521484375,1123.076904296875
6700.51164907,2278.4521484375,1123.076904296875
6700.512694042,2278.4521484375,1123.076904296875
6700.513925953,2278.4521484375,1123.076904296875
6700.546404927,2278.4521484375,1123.076904296875
6700.554163891,2278.4521484375,1123.8095703125
6700.586473552,2278.4521484375,1123.076904296875
6700.618919545,2276.149658203125,1123.076904296875
6700.620553319,2278.4521484375,1120.879150390625
6700.652723969,2276.149658203125,1122.3443603515625
6700.653772916,2278.4521484375,1120.146484375
6700.686492849,2278.4521484375,1121.6116943359375
6700.69174482,2278.4521484375,1122.3443603515625
6700.724249978,2278.4521484375,1123.076904296875
6700.756748636,2278.4521484375,1123.076904296875
6700.75799119,2278.4521484375,1123.076904296875
6700.81027621,2276.149658203125,1123.8095703125
6700.811327017,2276.149658203125,1120.879150390625
6700.812677246,2276.149658203125,1120.146484375
6700.845537593,2278.4521484375,1119.4139404296875
6700.877775145,2278.4521484375,1120.879150390625
6700.878891562,2276.149658203125,1122.3443603515625
6700.911647799,2278.4521484375,1120.879150390625
6700.916553017,2278.4521484375,1121.6116943359375
6700.949102195,2280.759521484375,1122.3443603515625
6700.989029148,2278.4521484375,1120.146484375
6700.990733184,2278.4521484375,1121.6116943359375
6700.991450492,2280.759521484375,1122.3443603515625
6701.024301439,2280.759521484375,1119.4139404296875
6701.056506185,2280.759521484375,1118.6812744140625
6701.057748063,2280.759521484375,1117.94873046875
6701.109111012,2280.759521484375,1117.216064453125
6701.110332525,2280.759521484375,1117.94873046875
6701.143012266,2280.759521484375,1117.216064453125
6701.144143744,2280.759521484375,1117.216064453125
6701.176601414,2280.759521484375,1117.216064453125
6701.177759683,2283.071533203125,1117.216064453125
6701.210249735,2280.759521484375,1116.4835205078125
6701.211431877,2280.759521484375,1117.216064453125
6701.244121385,2283.071533203125,1117.216064453125
6701.276603172,2283.071533203125,1116.4835205078125
6701.27770777,2280.759521484375,1116.4835205078125
6701.310239575,2280.759521484375,1116.4835205078125
6701.311765652,2283.071533203125,1117.216064453125
6701.344072345,2283.071533203125,1116.4835205078125
6701.416508647,2280.759521484375,1116.4835205078125
6701.417762831,2283.071533203125,1116.4835205078125
6701.419047265,2283.071533203125,1116.4835205078125
6701.423026988,2285.38818359375,1116.4835205078125
6701.455216878,2280.759521484375,1112.820556640625
6701.456403233,2285.38818359375,1115.7509765625
6701.489217,2283.071533203125,1112.820556640625
6701.490631272,2285.38818359375,1115.018310546875
6701.523040817,2285.38818359375,1112.087890625
6701.555563999,2283.071533203125,1111.3553466796875
6701.556615585,2285.38818359375,1114.2857666015625
6701.589308635,2285.38818359375,1112.087890625
6701.596555895,2285.38818359375,1111.3553466796875
6701.629004885,2285.38818359375,1110.6226806640625
6701.636689555,2285.38818359375,1110.6226806640625
6701.669050615,2285.38818359375,1110.6226806640625
6701.67035033,2285.38818359375,1110.6226806640625
6701.709030282,2285.38818359375,1110.6226806640625
6701.710150223,2285.38818359375,1109.89013671875
6701.742815238,2285.38818359375,1110.6226806640625
6701.775333294,2283.071533203125,1110.6226806640625
6701.776427682,2287.70947265625,1113.5531005859375
6701.809127594,2287.70947265625,1113.5531005859375
6701.810229244,2287.70947265625,1235.164794921875
6701.842825446,2287.70947265625,1172.1611328125
6701.875266254,2285.38818359375,1142.12451171875
6701.876479532,2290.03564453125,1126.00732421875
6701.909222809,2287.70947265625,1117.216064453125
6701.916482754,2287.70947265625,1116.4835205078125
6701.949006591,2290.03564453125,1115.018310546875
6701.950195514,2287.70947265625,1112.820556640625
6702.015912514,2290.03564453125,1113.5531005859375
6702.017037201,2287.70947265625,1111.3553466796875
6702.017690524,2290.03564453125,1113.5531005859375
6702.051603801,2290.03564453125,1111.3553466796875
6702.052709385,2290.03564453125,1110.6226806640625
6702.085584383,2290.03564453125,1109.89013671875
6702.09158701,2290.03564453125,1109.157470703125
6702.124084612,2290.03564453125,1109.157470703125
6702.156553938,2290.03564453125,1109.157470703125
6702.157735978,2290.03564453125,1109.157470703125
6702.190309242,2290.03564453125,1109.157470703125
6702.195272489,2292.366455078125,1109.157470703125
6702.227787221,2292.366455078125,1109.157470703125
6702.269172461,2290.03564453125,1108.4249267578125
6702.270182222,2292.366455078125,1108.4249267578125
6702.271773912,2290.03564453125,1108.4249267578125
6702.311564795,2292.366455078125,1109.157470703125
6702.31270361,2292.366455078125,1109.157470703125
6702.345552548,2292.366455078125,1108.4249267578125
6702.377817767,2292.366455078125,1108.4249267578125
6702.378931701,2292.366455078125,1108.4249267578125
6702.411585267,2294.701904296875,1108.4249267578125
6702.412699671,2294.701904296875,1105.4945068359375
6702.445487491,2294.701904296875,1104.029296875
6702.452777583,2292.366455078125,1103.2967529296875
6702.485503733,2294.701904296875,1106.22705078125
6702.492800892,2294.701904296875,1104.029296875
6702.525271181,2297.042236328125,1104.029296875
6702.557919952,2297.042236328125,1260.0732421875
6702.558908274,2297.042236328125,1333.3333740234375
6702.608989468,2297.042236328125,1367.032958984375
6702.610246069,2297.042236328125,1383.8828125
6702.611441279,2297.042236328125,1392.6739501953125
6702.644067548,2294.701904296875,1396.3370361328125
6702.676618363,2297.042236328125,1241.75830078125
6702.67774899,2297.042236328125,1326.00732421875
6702.710537907,2294.701904296875,1364.835205078125
6702.715244213,2297.042236328125,1227.106201171875
6702.74803636,2297.042236328125,1319.4139404296875
6702.748971708,2297.042236328125,1361.90478515625
6702.781518939,2297.042236328125,1381.6849365234375
6702.814087711,2297.042236328125,1390.4761962890625
6702.815164168,2299.387451171875,1395.6043701171875
6702.84813173,2299.387451171875,1394.13916015625
6702.920406848,2297.042236328125,1394.13916015625
6702.921418785,2297.042236328125,1397.069580078125
6702.922733533,2297.042236328125,1398.5347900390625
6702.941816803,2299.387451171875,1399.2674560546875
6702.943186619,2299.387451171875,1396.3370361328125
6702.975232901,2297.042236328125,1394.871826171875
6702.97640515,2299.387451171875,1397.80224609375
6703.008999596,2299.387451171875,1395.6043701171875
6703.014033777,2299.387451171875,1394.871826171875
6703.046550239,2299.387451171875,1394.13916015625
6703.047812339,2301.7373046875,1394.13916015625
6703.080500826,2301.7373046875,1392.6739501953125
6703.112953895,2301.7373046875,1391.94140625
6703.113998832,2301.7373046875,1391.94140625
6703.14656327,2301.7373046875,1391.94140625
6703.210505862,2301.7373046875,1391.94140625
6703.211513679,2301.7373046875,1391.94140625
6703.212728348,2301.7373046875,1391.208740234375
6703.213917428,2299.387451171875,1391.208740234375
6703.246570468,2304.092041015625,1392.6739501953125
6703.247718892,2304.092041015625,1388.2784423828125
6703.280357459,2304.092041015625,1386.813232421875
6703.312870751,2304.092041015625,1385.3480224609375
6703.313953447,2304.092041015625,1385.3480224609375
6703.34658571,2306.45166015625,1384.6153564453125
6703.379091191,2304.092041015625,1386.08056640625
6703.380203638,2304.092041015625,1385.3480224609375
6703.412824716,2304.092041015625,1385.3480224609375
6703.413967198,2306.45166015625,1385.3480224609375
6703.446714393,2304.092041015625,1386.08056640625
6703.451519599,2306.45166015625,1386.08056640625
6703.514281517,2304.092041015625,1386.08056640625
6703.515682009,2306.45166015625,1385.3480224609375
6703.549051895,2306.45166015625,1386.08056640625
6703.550201312,2306.45166015625,1386.813232421875
6703.551401196,2306.45166015625,1387.5457763671875
6703.58528191,2308.81591796875,1386.813232421875
6703.590334044,2306.45166015625,1383.8828125
6703.622816601,2306.45166015625,1385.3480224609375
6703.655333457,2306.45166015625,1386.08056640625
6703.656528325,2306.45166015625,1386.813232421875
6703.689091236,2306.45166015625,1386.813232421875
6703.690162555,2306.45166015625,1386.813232421875
6703.722783981,2308.81591796875,1386.813232421875
6703.755371544,2306.45166015625,1383.8828125
6703.756481566,2306.45166015625,1385.3480224609375
6703.808000789,2304.092041015625,1386.08056640625
6703.809015263,2306.45166015625,1386.08056640625
6703.81146021,2306.45166015625,1386.08056640625
6703.844061635,2308.81591796875,1386.813232421875
6703.845267516,2308.81591796875,1383.150146484375
6703.877916317,2306.45166015625,1382.4176025390625
6703.910295239,2306.45166015625,1384.6153564453125
6703.911404103,2306.45166015625,1386.08056640625
6703.944057892,2308.81591796875,1386.813232421875
6703.97648445,2306.45166015625,1383.150146484375
6703.977815494,2308.81591796875,1385.3480224609375
6704.010538727,2306.45166015625,1382.4176025390625
6704.011912994,2308.81591796875,1385.3480224609375
6704.044121302,2308.81591796875,1383.150146484375
6704.049098806,2308.81591796875,1381.6849365234375
6704.106528708,2308.81591796875,1380.952392578125
6704.107689379,2308.81591796875,1380.952392578125
6704.108942443,2308.81591796875,1380.952392578125
6704.141578857,2308.81591796875,1380.952392578125
6704.18899032,2308.81591796875,1380.2197265625
6704.190154579,2308.81591796875,1380.952392578125
6704.191496269,2308.81591796875,1380.2197265625
6704.224298088,2311.185302734375,1380.2197265625
6704.231496837,2308.81591796875,1379.4871826171875
6704.264007491,2308.81591796875,1380.2197265625
6704.296726654,2308.81591796875,1380.2197265625
6704.297846526,2308.81591796875,1380.2197265625
6704.330763037,2308.81591796875,1380.2197265625
6704.331457305,2308.81591796875,1380.2197265625
6704.363981578,2308.81591796875,1380.2197265625
6704.407800031,2311.185302734375,1380.952392578125
6704.409201983,2308.81591796875,1379.4871826171875
6704.411433796,2308.81591796875,1380.2197265625
6704.444057763,2311.185302734375,1380.2197265625
6704.476607706,2308.81591796875,1379.4871826171875
6704.47770003,2308.81591796875,1380.2197265625
6704.510752372,2308.81591796875,1380.2197265625
6704.511478047,2311.185302734375,1380.2197265625
6704.544262152,2308.81591796875,1379.4871826171875
6704.551506862,2308.81591796875,1379.4871826171875
6704.583980114,2311.185302734375,1380.2197265625
6704.616551652,2311.185302734375,1379.4871826171875
6704.623002261,2308.81591796875,1378.754638671875
6704.655384807,2311.185302734375,1379.4871826171875
6704.656491877,2311.185302734375,1378.754638671875
6704.707991671,2311.185302734375,1378.754638671875
6704.709279324,2311.185302734375,1378.754638671875
6704.710378577,2311.185302734375,1378.754638671875
6704.742932976,2311.185302734375,1378.754638671875
6704.775409187,2311.185302734375,1378.754638671875
6704.776401317,2311.185302734375,1378.754638671875
6704.829028574,2311.185302734375,1378.02197265625
6704.830626332,2311.185302734375,1378.754638671875
6704.831538094,2311.185302734375,1378.754638671875
6704.864084129,2311.185302734375,1379.4871826171875
6704.896481737,2311.185302734375,1378.754638671875
6704.897634467,2311.185302734375,1378.754638671875
6704.930663307,2311.185302734375,1378.754638671875
6704.933044801,2311.185302734375,1378.754638671875
6704.965495254,2311.185302734375,1378.754638671875
6704.966531411,2308.81591796875,1378.754638671875
6705.005440986,2311.185302734375,1379.4871826171875
6705.010533315,2311.185302734375,1378.754638671875
6705.042975753,2313.559326171875,1378.754638671875
6705.075397963,2311.185302734375,1375.091552734375
6705.076410237,2311.185302734375,1377.2894287109375
6705.109207742,2311.185302734375,1378.02197265625
6705.114047172,2313.559326171875,1378.754638671875
6705.146803763,2311.185302734375,1375.091552734375
6705.148137902,2313.559326171875,1376.5567626953125
6705.180448591,2313.559326171875,1374.3590087890625
6705.213385823,2313.559326171875,1373.6263427734375
6705.21394548,2313.559326171875,1372.893798828125
6705.246754096,2313.559326171875,1372.1611328125
6705.254040278,2313.559326171875,1372.1611328125
6705.312990754,2313.559326171875,1372.893798828125
6705.314467442,2311.185302734375,1372.1611328125
6705.315365219,2313.559326171875,1375.82421875
6705.347861576,2313.559326171875,1373.6263427734375
6705.380624389,2313.559326171875,1372.893798828125
6705.381503322,2313.559326171875,1372.1611328125
6705.414257598,2315.938232421875,1372.1611328125
6705.415496592,2313.559326171875,1373.6263427734375
6705.46908586,2313.559326171875,1372.893798828125
6705.47036575,2315.938232421875,1372.1611328125
6705.47141482,2315.938232421875,1373.6263427734375
6705.504065687,2315.938232421875,1373.6263427734375
6705.511580345,2315.938232421875,1374.3590087890625
6705.544260961,2315.938232421875,1374.3590087890625
6705.551611664,2315.938232421875,1374.3590087890625
6705.607988301,2315.938232421875,1374.3590087890625
6705.609036717,2315.938232421875,1374.3590087890625
6705.610310118,2313.559326171875,1374.3590087890625
6705.643131575,2315.938232421875,1372.893798828125
6705.65041639,2315.938232421875,1373.6263427734375
6705.682998004,2313.559326171875,1373.6263427734375
6705.715357836,2315.938232421875,1372.893798828125
6705.71647757,2315.938232421875,1373.6263427734375
6705.749104664,2313.559326171875,1373.6263427734375
6705.754410792,2315.938232421875,1372.893798828125
6705.78672028,2313.559326171875,1373.6263427734375
6705.787761584,2315.938232421875,1372.893798828125
6705.82054515,2315.938232421875,1373.6263427734375
6705.852908479,2311.185302734375,1373.6263427734375
6705.853942354,2315.938232421875,1375.82421875
6705.911857954,2315.938232421875,1375.091552734375
6705.912879614,2315.938232421875,1374.3590087890625
6705.914073736,2315.938232421875,1374.3590087890625
6705.946700914,2315.938232421875,1374.3590087890625
6705.947814886,2313.559326171875,1374.3590087890625
6705.980752386,2315.938232421875,1372.893798828125
6706.012906946,2313.559326171875,1373.6263427734375
6706.014076586,2315.938232421875,1372.893798828125
6706.046958616,2313.559326171875,1372.893798828125
6706.051621947,2315.938232421875,1372.893798828125
6706.109413388,2315.938232421875,1373.6263427734375
6706.110901182,2315.938232421875,1374.3590087890625
6706.11165617,2315.938232421875,1374.3590087890625
6706.144243965,2318.322265625,1374.3590087890625
6706.149132475,2315.938232421875,1370.6959228515625
6706.210640213,2315.938232421875,1372.893798828125
6706.211624257,2313.559326171875,1373.6263427734375
6706.212820571,2315.938232421875,1372.893798828125
6706.246249052,2315.938232421875,1373.6263427734375
6706.246623581,2315.938232421875,1374.3590087890625
6706.279737332,2315.938232421875,1373.6263427734375
6706.311917169,2313.559326171875,1374.3590087890625
6706.312947587,2315.938232421875,1372.893798828125
6706.345683821,2315.938232421875,1373.6263427734375
6706.352923007,2313.559326171875,1373.6263427734375
6706.385439324,2315.938232421875,1372.893798828125
6706.417962433,2313.559326171875,1373.6263427734375
6706.419001224,2315.938232421875,1372.893798828125
6706.451653391,2315.938232421875,1373.6263427734375
6706.452836938,2315.938232421875,1373.6263427734375
6706.50936633,2315.938232421875,1373.6263427734375
6706.510369928,2315.938232421875,1373.6263427734375
6706.51151349,2315.938232421875,1374.3590087890625
6706.544323842,2315.938232421875,1374.3590087890625
6706.576881797,2315.938232421875,1374.3590087890625
6706.578132499,2315.938232421875,1374.3590087890625
6706.610625737,2315.938232421875,1374.3590087890625
6706.618035222,2315.938232421875,1373.6263427734375
6706.650372637,2315.938232421875,1374.3590087890625
6706.6515942,2315.938232421875,1374.3590087890625
6706.684331439,2315.938232421875,1374.3590087890625
6706.716598504,2315.938232421875,1374.3590087890625
6706.717800028,2315.938232421875,1374.3590087890625
6706.749336008,2315.938232421875,1374.3590087890625
6706.750329892,2315.938232421875,1374.3590087890625
6706.810634558,2318.322265625,1374.3590087890625
6706.811611976,2318.322265625,1370.6959228515625
6706.812807032,2315.938232421875,1369.230712890625
6706.845567007,2315.938232421875,1372.1611328125
6706.85331405,2318.322265625,1372.893798828125
6706.885754295,2318.322265625,1369.96337890625
6706.886708585,2315.938232421875,1368.4981689453125
6706.919191337,2318.322265625,1371.4285888671875
6706.95165939,2315.938232421875,1369.96337890625
6706.952779121,2318.322265625,1372.1611328125
6706.985424684,2315.938232421875,1369.96337890625
6706.992953748,2315.938232421875,1372.1611328125
6707.025420694,2318.322265625,1372.893798828125
6707.058119814,2315.938232421875,1369.96337890625
6707.059170519,2318.322265625,1372.893798828125
6707.108065338,2315.938232421875,1369.230712890625
6707.109140597,2315.938232421875,1372.893798828125
6707.110800219,2318.322265625,1372.893798828125
6707.143124702,2315.938232421875,1369.96337890625
6707.175573769,2318.322265625,1372.1611328125
6707.177081829,2318.322265625,1369.96337890625
6707.209202816,2315.938232421875,1368.4981689453125
6707.210320819,2318.322265625,1371.4285888671875
6707.243149733,2318.322265625,1369.230712890625
6707.248087492,2318.322265625,1368.4981689453125
6707.280421645,2318.322265625,1368.4981689453125
6707.31318886,2318.322265625,1367.765625
6707.314520241,2318.322265625,1367.765625
6707.346724416,2318.322265625,1367.765625
6707.351702361,2318.322265625,1367.765625
6707.424404372,2318.322265625,1367.765625
6707.425442148,2318.322265625,1367.765625
6707.426612364,2318.322265625,1367.765625
6707.428303951,2318.322265625,1367.765625
6707.460479432,2315.938232421875,1367.765625
6707.494093824,2318.322265625,1370.6959228515625
6707.495367945,2318.322265625,1369.230712890625
6707.527860919,2318.322265625,1368.4981689453125
6707.529036752,2320.7109375,1367.765625
6707.561629387,2320.7109375,1367.032958984375
6707.573125557,2318.322265625,1366.3004150390625
6707.605537128,2320.7109375,1367.032958984375
6707.606872979,2320.7109375,1366.3004150390625
6707.639134881,2320.7109375,1366.3004150390625
6707.671714854,2315.938232421875,1365.5677490234375
6707.672967927,2320.7109375,1369.96337890625
6707.712888926,2320.7109375,1367.765625
6707.714228411,2320.7109375,1367.032958984375
6707.746609819,2320.7109375,1366.3004150390625
6707.747769127,2320.7109375,1366.3004150390625
6707.780346112,2320.7109375,1365.5677490234375
6707.813061277,2320.7109375,1366.3004150390625
6707.814073467,2320.7109375,1365.5677490234375
6707.846679727,2318.322265625,1365.5677490234375
6707.84786012,2320.7109375,1366.3004150390625
6707.880466786,2320.7109375,1366.3004150390625
6707.913022647,2318.322265625,1365.5677490234375
6707.914159002,2320.7109375,1367.032958984375
6707.946709236,2320.7109375,1366.3004150390625
6707.951680847,2320.7109375,1365.5677490234375
6708.024412533,2318.322265625,1365.5677490234375
6708.025349316,2320.7109375,1366.3004150390625
6708.026681039,2320.7109375,1366.3004150390625
6708.040662555,2320.7109375,1366.3004150390625
6708.073209303,2318.322265625,1365.5677490234375
6708.074514235,2318.322265625,1366.3004150390625
6708.106868815,2318.322265625,1367.032958984375
6708.10791943,2320.7109375,1367.765625
6708.140655872,2320.7109375,1367.032958984375
6708.173179767,2320.7109375,1366.3004150390625
6708.174524881,2320.7109375,1365.5677490234375
6708.20664474,2320.7109375,1365.5677490234375
6708.211680432,2320.7109375,1365.5677490234375
6708.244241229,2320.7109375,1366.3004150390625
6708.251621765,2320.7109375,1365.5677490234375
6708.305613678,2320.7109375,1365.5677490234375
6708.306550036,2323.104736328125,1365.5677490234375
6708.339170754,2320.7109375,1361.90478515625
6708.340265423,2320.7109375,1364.1025390625
6708.373049624,2320.7109375,1364.835205078125
6708.374064855,2320.7109375,1365.5677490234375
6708.406913996,2320.7109375,1365.5677490234375
6708.407903091,2323.104736328125,1365.5677490234375
6708.44057558,2320.7109375,1361.90478515625
6708.473166776,2320.7109375,1364.1025390625
6708.474171855,2320.7109375,1364.835205078125
6708.506810345,2320.7109375,1365.5677490234375
6708.507969792,2320.7109375,1365.5677490234375
6708.540620463,2320.7109375,1365.5677490234375
6708.573183548,2320.7109375,1365.5677490234375
6708.574103202,2320.7109375,1365.5677490234375
6708.61917404,2320.7109375,1365.5677490234375
6708.620293373,2320.7109375,1365.5677490234375
6708.669274572,2320.7109375,1365.5677490234375
6708.670408236,2320.7109375,1365.5677490234375
6708.672084559,2318.322265625,1365.5677490234375
6708.704115975,2320.7109375,1367.032958984375
6708.705330828,2318.322265625,1366.3004150390625
6708.738059705,2320.7109375,1367.032958984375
6708.770440383,2318.322265625,1366.3004150390625
6708.771580248,2320.7109375,1367.032958984375
6708.804412929,2320.7109375,1366.3004150390625
6708.805797124,2320.7109375,1366.3004150390625
6708.838091506,2320.7109375,1365.5677490234375
6708.870471832,2318.322265625,1365.5677490234375
6708.872001787,2320.7109375,1366.3004150390625
6708.906882351,2320.7109375,1366.3004150390625
6708.907960552,2320.7109375,1365.5677490234375
6708.94044071,2320.7109375,1365.5677490234375
6708.973004873,2320.7109375,1365.5677490234375
6708.974090266,2320.7109375,1365.5677490234375
6709.006655865,2320.7109375,1365.5677490234375
6709.008637667,2320.7109375,1365.5677490234375
6709.040381607,2320.7109375,1365.5677490234375
6709.073042428,2323.104736328125,1365.5677490234375
6709.074165082,2320.7109375,1362.6373291015625
6709.106659544,2320.7109375,1364.1025390625
6709.111660756,2320.7109375,1364.835205078125
6709.144153242,2320.7109375,1364.835205078125
6709.145331562,2318.322265625,1365.5677490234375
6709.21430944,2320.7109375,1366.3004150390625
6709.215644956,2318.322265625,1366.3004150390625
6709.216882739,2320.7109375,1367.032958984375
6709.250421801,2320.7109375,1366.3004150390625
6709.251592164,2318.322265625,1365.5677490234375
6709.309380127,2320.7109375,1366.3004150390625
6709.31081682,2318.322265625,1366.3004150390625
6709.312059876,2320.7109375,1367.032958984375
6709.344324286,2318.322265625,1366.3004150390625
6709.35161854,2320.7109375,1367.032958984375
6709.384311982,2320.7109375,1366.3004150390625
6709.389153475,2320.7109375,1365.5677490234375
6709.421775713,2320.7109375,1365.5677490234375
6709.45443018,2320.7109375,1365.5677490234375
6709.455429266,2320.7109375,1365.5677490234375
6709.51039421,2318.322265625,1365.5677490234375
6709.511578116,2320.7109375,1367.032958984375
6709.513241616,2318.322265625,1366.3004150390625
6709.545700608,2320.7109375,1367.032958984375
6709.54685315,2320.7109375,1366.3004150390625
6709.579325494,2320.7109375,1366.3004150390625
6709.611878704,2320.7109375,1366.3004150390625
6709.612917049,2320.7109375,1366.3004150390625
6709.645666262,2320.7109375,1366.3004150390625
6709.650623161,2320.7109375,1365.5677490234375
6709.68300703,2320.7109375,1365.5677490234375
6709.690369733,2323.104736328125,1365.5677490234375
6709.72290386,2323.104736328125,1361.90478515625
6709.755671733,2323.104736328125,1360.4395751953125
6709.756991513,2323.104736328125,1359.7069091796875
6709.811763867,2323.104736328125,1358.974365234375
6709.81281076,2323.104736328125,1359.7069091796875
6709.814049865,2323.104736328125,1358.974365234375
6709.846687328,2323.104736328125,1358.974365234375
6709.847963352,2323.104736328125,1358.974365234375
6709.880445622,2323.104736328125,1358.974365234375
6709.914448567,2320.7109375,1358.974365234375
6709.915565294,2323.104736328125,1362.6373291015625
6709.950492164,2320.7109375,1361.172119140625
6709.951661297,2323.104736328125,1363.3699951171875
6709.984382647,2323.104736328125,1361.172119140625
6709.985374755,2323.104736328125,1360.4395751953125
6710.018055282,2323.104736328125,1359.7069091796875
6710.050486863,2318.322265625,1359.7069091796875
6710.0553837,2320.7109375,1363.3699951171875
6710.112073975,2323.104736328125,1364.1025390625
6710.112812751,2323.104736328125,1361.90478515625
6710.114012901,2323.104736328125,1360.4395751953125
6710.146726377,2320.7109375,1359.7069091796875
6710.1479157,2323.104736328125,1363.3699951171875
6710.180761595,2320.7109375,1361.172119140625
6710.212887934,2318.322265625,1363.3699951171875
6710.214031412,2320.7109375,1365.5677490234375
6710.246692812,2318.322265625,1365.5677490234375
6710.247861976,2320.7109375,1367.032958984375
6710.280608436,2320.7109375,1366.3004150390625
6710.28802682,2320.7109375,1365.5677490234375
6710.320436312,2320.7109375,1365.5677490234375
6710.353181353,2320.7109375,1365.5677490234375
6710.354442312,2320.7109375,1365.5677490234375
6710.415434879,2318.322265625,1365.5677490234375
6710.416568042,2320.7109375,1366.3004150390625
6710.41782209,2323.104736328125,1365.5677490234375
6710.450593234,2318.322265625,1362.6373291015625
6710.451589754,2323.104736328125,1365.5677490234375
6710.484374135,2320.7109375,1361.90478515625
6710.485387667,2320.7109375,1364.1025390625
6710.518242408,2323.104736328125,1365.5677490234375
6710.550749023,2318.322265625,1361.90478515625
6710.551651422,2320.7109375,1364.835205078125
6710.589116328,2320.7109375,1364.835205078125
6710.590277774,2320.7109375,1365.5677490234375
6710.622893727,2320.7109375,1366.3004150390625
6710.624051198,2323.104736328125,1365.5677490234375
6710.656784051,2320.7109375,1361.90478515625
6710.709203904,2320.7109375,1364.1025390625
6710.710347741,2320.7109375,1364.835205078125
6710.711908026,2320.7109375,1365.5677490234375
6710.744277521,2320.7109375,1365.5677490234375
6710.745329328,2320.7109375,1365.5677490234375
6710.778068975,2323.104736328125,1365.5677490234375
6710.810561359,2320.7109375,1361.90478515625
6710.81152854,2320.7109375,1364.1025390625
6710.844358137,2320.7109375,1365.5677490234375
6710.850675488,2320.7109375,1365.5677490234375
6710.883022776,2323.104736328125,1365.5677490234375
6710.889133677,2320.7109375,1362.6373291015625
6710.921879612,2318.322265625,1364.1025390625
6710.926786535,2320.7109375,1366.3004150390625
6710.959540646,2320.7109375,1365.5677490234375
6711.014252178,2320.7109375,1366.3004150390625
6711.015422058,2323.104736328125,1366.3004150390625
6711.01662958,2320.7109375,1361.90478515625
6711.0493769,2323.104736328125,1363.3699951171875
6711.050413891,2325.50341796875,1361.172119140625
6711.083144336,2323.104736328125,1361.172119140625
6711.084531097,2325.50341796875,1359.7069091796875
6711.116900547,2325.50341796875,1361.172119140625
6711.149289169,2325.50341796875,1361.172119140625
6711.150464953,2325.50341796875,1361.172119140625
6711.183228176,2325.50341796875,1361.172119140625
6711.229385113,2325.50341796875,1361.90478515625
6711.23045342,2323.104736328125,1361.90478515625
6711.231700038,2325.50341796875,1360.4395751953125
6711.264574525,2323.104736328125,1361.172119140625
6711.265601008,2323.104736328125,1359.7069091796875
6711.308042334,2323.104736328125,1359.7069091796875
6711.309221273,2323.104736328125,1358.974365234375
6711.341867835,2320.7109375,1358.974365234375
6711.374359573,2323.104736328125,1362.6373291015625
6711.375910964,2323.104736328125,1360.4395751953125
6711.408140206,2323.104736328125,1359.7069091796875
6711.409226262,2323.104736328125,1359.7069091796875
6711.441781246,2323.104736328125,1358.974365234375
6711.449495315,2323.104736328125,1359.7069091796875
6711.48184186,2325.50341796875,1358.974365234375
6711.514386958,2323.104736328125,1360.4395751953125
6711.515411124,2323.104736328125,1359.7069091796875
6711.548231844,2323.104736328125,1358.974365234375
6711.5492458,2323.104736328125,1358.974365234375
6711.613223402,2323.104736328125,1359.7069091796875
6711.614599673,2323.104736328125,1358.974365234375
6711.615582744,2323.104736328125,1358.974365234375
6711.639497915,2323.104736328125,1358.974365234375
6711.671782051,2325.50341796875,1358.974365234375
6711.672884529,2323.104736328125,1360.4395751953125
6711.705793051,2323.104736328125,1359.7069091796875
6711.707218354,2323.104736328125,1359.7069091796875
6711.739314801,2323.104736328125,1358.974365234375
6711.771954964,2323.104736328125,1359.7069091796875
6711.773455193,2323.104736328125,1359.7069091796875
6711.805771143,2323.104736328125,1359.7069091796875
6711.810837653,2325.50341796875,1359.7069091796875
6711.843073646,2325.50341796875,1360.4395751953125
6711.844218803,2325.50341796875,1361.172119140625
6711.870555806,2325.50341796875,1361.172119140625
6711.90807397,2325.50341796875,1361.90478515625
6711.909591935,2325.50341796875,1361.90478515625
6711.941812277,2325.50341796875,1361.90478515625
6711.974304384,2323.104736328125,1361.90478515625
6711.975494315,2325.50341796875,1360.4395751953125
6712.008040994,2325.50341796875,1361.172119140625
6712.009156204,2325.50341796875,1361.90478515625
6712.042156239,2323.104736328125,1361.90478515625
6712.043147888,2325.50341796875,1360.4395751953125
6712.100464761,2323.104736328125,1360.4395751953125
6712.101662303,2325.50341796875,1359.7069091796875
6712.134335224,2325.50341796875,1361.172119140625
6712.135538221,2325.50341796875,1361.172119140625
6712.168041019,2323.104736328125,1361.172119140625
6712.169206451,2325.50341796875,1360.4395751953125
6712.211767776,2323.104736328125,1361.172119140625
6712.213053801,2325.50341796875,1359.7069091796875
6712.245783,2325.50341796875,1361.172119140625
6712.246820077,2325.50341796875,1361.172119140625
6712.279284937,2325.50341796875,1361.90478515625
6712.311800311,2323.104736328125,1361.172119140625
6712.312910598,2323.104736328125,1359.7069091796875
6712.345777156,2323.104736328125,1359.7069091796875
6712.346688672,2325.50341796875,1358.974365234375
6712.379281238,2323.104736328125,1361.172119140625
6712.413018238,2323.104736328125,1359.7069091796875
6712.414240586,2323.104736328125,1359.7069091796875
6712.44681889,2318.322265625,1358.974365234375
6712.447962928,2320.7109375,1364.1025390625
6712.52079706,2325.50341796875,1364.835205078125
6712.522263372,2320.7109375,1363.3699951171875
6712.523032767,2323.104736328125,1364.835205078125
6712.538028042,2323.104736328125,1361.90478515625
6712.570553417,2323.104736328125,1360.4395751953125
6712.571743737,2323.104736328125,1359.7069091796875
6712.604303915,2323.104736328125,1359.7069091796875
6712.605511284,2325.50341796875,1359.7069091796875
6712.638194924,2323.104736328125,1361.172119140625
6712.643291933,2323.104736328125,1359.7069091796875
6712.675669437,2323.104736328125,1358.974365234375
6712.707994248,2323.104736328125,1359.7069091796875
6712.709238241,2323.104736328125,1359.7069091796875
6712.742045822,2323.104736328125,1359.7069091796875
6712.749235021,2323.104736328125,1358.974365234375
6712.811991835,2325.50341796875,1358.974365234375
6712.812973589,2323.104736328125,1360.4395751953125
6712.814231997,2323.104736328125,1359.7069091796875
6712.846790299,2325.50341796875,1358.974365234375
6712.847956083,2323.104736328125,1361.172119140625
6712.880569801,2320.7109375,1360.4395751953125
6712.888403136,2323.104736328125,1363.3699951171875
6712.92062297,2325.50341796875,1361.172119140625
6712.9531603,2323.104736328125,1361.90478515625
6712.954246972,2323.104736328125,1360.4395751953125
6712.987000678,2323.104736328125,1359.7069091796875
6712.988159421,2323.104736328125,1359.7069091796875
6713.020771995,2323.104736328125,1358.974365234375
6713.025490438,2323.104736328125,1359.7069091796875
6713.058316866,2323.104736328125,1359.7069091796875
6713.117952482,2320.7109375,1358.974365234375
6713.119320995,2320.7109375,1362.6373291015625
6713.120439895,2320.7109375,1364.835205078125
6713.121695161,2323.104736328125,1364.835205078125
6713.149300908,2320.7109375,1361.90478515625
6713.181951486,2323.104736328125,1364.1025390625
6713.183052107,2323.104736328125,1361.90478515625
6713.215862908,2323.104736328125,1360.4395751953125
6713.248108072,2323.104736328125,1360.4395751953125
6713.249431527,2318.322265625,1359.7069091796875
6713.281808843,2323.104736328125,1363.3699951171875
6713.282942955,2323.104736328125,1361.172119140625
6713.315574532,2320.7109375,1360.4395751953125
6713.348313412,2320.7109375,1362.6373291015625
6713.349298301,2318.322265625,1364.835205078125
6713.412068269,2318.322265625,1366.3004150390625
6713.413032376,2318.322265625,1367.032958984375
6713.414304261,2320.7109375,1367.032958984375
6713.44682053,2318.322265625,1366.3004150390625
6713.447998604,2318.322265625,1367.032958984375
6713.480616307,2318.322265625,1367.032958984375
6713.481837771,2318.322265625,1367.765625
6713.514268346,2318.322265625,1367.765625
6713.546790869,2315.938232421875,1367.765625
6713.547972135,2318.322265625,1372.1611328125
6713.580678502,2315.938232421875,1369.230712890625
6713.613300072,2315.938232421875,1372.1611328125
6713.614734403,2318.322265625,1373.6263427734375
6713.646804027,2318.322265625,1370.6959228515625
6713.647972291,2315.938232421875,1369.230712890625
6713.688142416,2318.322265625,1372.1611328125
6713.689175353,2315.938232421875,1369.96337890625
6713.722234884,2315.938232421875,1372.1611328125
6713.729214892,2315.938232421875,1372.893798828125
6713.80053103,2315.938232421875,1373.6263427734375
6713.801765652,2313.559326171875,1374.3590087890625
6713.802909385,2315.938232421875,1373.6263427734375
6713.804221976,2313.559326171875,1374.3590087890625
6713.83687273,2313.559326171875,1372.893798828125
6713.869360152,2313.559326171875,1372.893798828125
6713.870503907,2311.185302734375,1372.1611328125
6713.903033857,2313.559326171875,1375.82421875
6713.910664522,2313.559326171875,1373.6263427734375
6713.94299987,2315.938232421875,1372.893798828125
6713.944181423,2313.559326171875,1373.6263427734375
6714.010681161,2313.559326171875,1372.893798828125
6714.011683403,2313.559326171875,1372.893798828125
6714.013018982,2311.185302734375,1372.1611328125
6714.045595514,2308.81591796875,1375.82421875
6714.046808044,2311.185302734375,1378.754638671875
6714.079302179,2311.185302734375,1378.754638671875
6714.080472252,2311.185302734375,1378.754638671875
6714.113271605,2311.185302734375,1378.754638671875
6714.145590558,2308.81591796875,1378.754638671875
6714.146755718,2311.185302734375,1380.2197265625
6714.179425586,2308.81591796875,1379.4871826171875
6714.211771579,2308.81591796875,1380.2197265625
6714.212894977,2308.81591796875,1380.2197265625
6714.245566664,2306.45166015625,1380.2197265625
6714.246775478,2308.81591796875,1383.8828125
6714.319350554,2308.81591796875,1382.4176025390625
6714.320899438,2306.45166015625,1381.6849365234375
6714.322196342,2306.45166015625,1384.6153564453125
6714.33205058,2306.45166015625,1386.08056640625
6714.364360665,2306.45166015625,1386.813232421875
6714.365408602,2306.45166015625,1386.813232421875
6714.398152881,2306.45166015625,1387.5457763671875
6714.429302937,2306.45166015625,1386.813232421875
6714.434694469,2304.092041015625,1387.5457763671875
6714.46708716,2304.092041015625,1386.08056640625
6714.468000977,2304.092041015625,1386.08056640625
6714.50077432,2306.45166015625,1385.3480224609375
6714.508165625,2306.45166015625,1386.813232421875
6714.54076517,2308.81591796875,1386.813232421875
6714.573135003,2313.559326171875,1383.8828125
6714.574272747,2320.7109375,1378.02197265625
6714.610528961,2327.906982421875,1370.6959228515625
6714.61172434,2325.50341796875,1362.6373291015625
6714.644484188,2323.104736328125,1361.90478515625
6714.645501793,2323.104736328125,1361.172119140625
6714.678224515,2323.104736328125,1360.4395751953125
6714.710510928,2323.104736328125,1359.7069091796875
6714.711683478,2320.7109375,1359.7069091796875
6714.744464891,2318.322265625,1362.6373291015625
6714.745499973,2318.322265625,1365.5677490234375
6714.778293963,2318.322265625,1367.032958984375
6714.810503645,2315.938232421875,1367.032958984375
6714.811764132,2315.938232421875,1370.6959228515625
6714.844547021,2315.938232421875,1372.893798828125
6714.845415624,2315.938232421875,1373.6263427734375
6714.916801033,2313.559326171875,1374.3590087890625
6714.91794239,2315.938232421875,1372.893798828125
6714.919320406,2313.559326171875,1374.3590087890625
6714.926872821,2311.185302734375,1372.893798828125
6714.959392237,2311.185302734375,1376.5567626953125
6714.965904517,2311.185302734375,1377.2894287109375
6714.998056956,2311.185302734375,1378.02197265625
6715.030667875,2308.81591796875,1378.02197265625
6715.03163211,2308.81591796875,1379.4871826171875
6715.069682539,2308.81591796875,1380.2197265625
6715.070902209,2308.81591796875,1380.2197265625
6715.103029967,2306.45166015625,1380.2197265625
6715.104712342,2306.45166015625,1383.8828125
6715.136828752,2306.45166015625,1386.08056640625
6715.169388405,2306.45166015625,1386.813232421875
6715.170634735,2306.45166015625,1386.813232421875
6715.208043861,2304.092041015625,1387.5457763671875
6715.209281172,2304.092041015625,1386.08056640625
6715.241998281,2304.092041015625,1386.08056640625
6715.242951588,2304.092041015625,1385.3480224609375
6715.275560264,2304.092041015625,1385.3480224609375
6715.308091825,2304.092041015625,1385.3480224609375
6715.309371866,2306.45166015625,1385.3480224609375
6715.341800264,2304.092041015625,1386.813232421875
6715.349462635,2304.092041015625,1386.08056640625
6715.381867098,2304.092041015625,1386.08056640625
6715.383356178,2304.092041015625,1386.08056640625
6715.415607638,2301.7373046875,1385.3480224609375
6715.448372604,2304.092041015625,1389.010986328125
6715.449419816,2301.7373046875,1387.5457763671875
6715.51453044,2304.092041015625,1389.010986328125
6715.515576219,2301.7373046875,1387.5457763671875
6715.516766348,2301.7373046875,1389.7435302734375
6715.549665934,2299.387451171875,1391.208740234375
6715.550505667,2301.7373046875,1391.94140625
6715.583176431,2301.7373046875,1391.94140625
6715.584376036,2301.7373046875,1391.94140625
6715.616999672,2301.7373046875,1392.6739501953125
6715.649389799,2301.7373046875,1391.94140625
6715.650492416,2301.7373046875,1391.94140625
6715.709502027,2301.7373046875,1391.94140625
6715.710529857,2301.7373046875,1391.94140625
6715.711793851,2301.7373046875,1391.94140625
6715.744360741,2299.387451171875,1391.94140625
6715.745918748,2301.7373046875,1392.6739501953125
6715.808360864,2301.7373046875,1392.6739501953125
6715.809423983,2301.7373046875,1392.6739501953125
6715.810572206,2301.7373046875,1391.94140625
6715.843197868,2299.387451171875,1391.94140625
6715.844500329,2301.7373046875,1392.6739501953125
6715.876952099,2301.7373046875,1391.94140625
6715.909675929,2301.7373046875,1391.94140625
6715.91093595,2301.7373046875,1392.6739501953125
6715.943204502,2301.7373046875,1391.94140625
6715.944344342,2301.7373046875,1391.94140625
6715.976988953,2301.7373046875,1391.94140625
6716.009430055,2301.7373046875,1391.94140625
6716.010859633,2299.387451171875,1391.94140625
6716.043146363,2301.7373046875,1392.6739501953125
6716.04432357,2301.7373046875,1392.6739501953125
6716.114560768,2304.092041015625,1391.94140625
6716.115563245,2304.092041015625,1388.2784423828125
6716.117105773,2304.092041015625,1386.813232421875
6716.149676461,2304.092041015625,1386.08056640625
6716.151059643,2304.092041015625,1386.08056640625
6716.183677191,2304.092041015625,1385.3480224609375
6716.184371838,2304.092041015625,1385.3480224609375
6716.21711995,2304.092041015625,1385.3480224609375
6716.24968687,2304.092041015625,1385.3480224609375
6716.251116301,2304.092041015625,1385.3480224609375
6716.283413806,2304.092041015625,1385.3480224609375
6716.284788312,2304.092041015625,1385.3480224609375
6716.316946301,2304.092041015625,1385.3480224609375
6716.32219163,2304.092041015625,1385.3480224609375
6716.349468657,2304.092041015625,1385.3480224609375
6716.409622837,2301.7373046875,1385.3480224609375
6716.411058533,2304.092041015625,1388.2784423828125
6716.412279423,2304.092041015625,1386.813232421875
6716.444456071,2301.7373046875,1386.08056640625
6716.445614782,2301.7373046875,1389.010986328125
6716.478385219,2304.092041015625,1390.4761962890625
6716.510760403,2301.7373046875,1387.5457763671875
6716.511878904,2304.092041015625,1390.4761962890625
6716.544471252,2301.7373046875,1387.5457763671875
6716.54556751,2301.7373046875,1389.7435302734375
6716.578312772,2304.092041015625,1390.4761962890625
6716.610902274,2304.092041015625,1388.2784423828125
6716.61178108,2304.092041015625,1386.813232421875
6716.644631117,2299.387451171875,1386.08056640625
6716.645639713,2301.7373046875,1390.4761962890625
6716.715616516,2301.7373046875,1390.4761962890625
6716.71677617,2301.7373046875,1391.208740234375
6716.718025059,2301.7373046875,1391.94140625
6716.750902531,2301.7373046875,1391.94140625
6716.751893845,2301.7373046875,1391.208740234375
6716.784644351,2299.387451171875,1391.94140625
6716.785700461,2301.7373046875,1393.4066162109375
6716.818410768,2301.7373046875,1391.94140625
6716.819445872,2301.7373046875,1391.94140625
6716.851936563,2301.7373046875,1391.94140625
6716.884668165,2299.387451171875,1391.94140625
6716.88605034,2301.7373046875,1393.4066162109375
6716.918380974,2299.387451171875,1392.6739501953125
6716.950880384,2299.387451171875,1393.4066162109375
6716.952120623,2299.387451171875,1393.4066162109375
6717.02437491,2297.042236328125,1393.4066162109375
6717.025605545,2297.042236328125,1397.069580078125
6717.026762788,2299.387451171875,1398.5347900390625
6717.029363412,2297.042236328125,1396.3370361328125
6717.061986635,2297.042236328125,1397.80224609375
6717.06301135,2297.042236328125,1399.2674560546875
6717.09571711,2297.042236328125,1400.0
6717.128182494,2297.042236328125,1400.0
6717.129390104,2297.042236328125,1400.7325439453125
6717.161998201,2294.701904296875,1400.7325439453125
6717.163099373,2294.701904296875,1243.9560546875
6717.195650551,2294.701904296875,1170.6959228515625
6717.228157716,2292.366455078125,1135.5311279296875
6717.229574852,2294.701904296875,1122.3443603515625
6717.262394027,2292.366455078125,1112.087890625
6717.309414887,2292.366455078125,1110.6226806640625
6717.31062155,2294.701904296875,1109.89013671875
6717.311776618,2292.366455078125,1106.22705078125
6717.344441151,2290.03564453125,1107.6922607421875
6717.345666258,2290.03564453125,1109.157470703125
6717.378204242,2290.03564453125,1109.157470703125
6717.385879884,2292.366455078125,1109.89013671875
6717.418339053,2290.03564453125,1109.157470703125
6717.450896142,2290.03564453125,1109.157470703125
6717.452317876,2290.03564453125,1109.157470703125
6717.484510995,2287.70947265625,1109.89013671875
6717.485614722,2287.70947265625,1112.820556640625
6717.518456932,2287.70947265625,1114.2857666015625
6717.550676184,2287.70947265625,1115.018310546875
6717.551779805,2287.70947265625,1115.018310546875
6717.624662744,2287.70947265625,1115.018310546875
6717.626117041,2285.38818359375,1115.018310546875
6717.626976576,2285.38818359375,1112.820556640625
6717.642159344,2283.071533203125,1111.3553466796875
6717.643154074,2285.38818359375,1113.5531005859375
6717.67595822,2280.759521484375,1112.087890625
6717.708167083,2283.071533203125,1115.018310546875
6717.70937144,2280.759521484375,1115.7509765625
6717.741925303,2280.759521484375,1116.4835205078125
6717.748126278,2280.759521484375,1117.216064453125
6717.780630946,2280.759521484375,1117.94873046875
6717.781804359,2278.4521484375,1117.94873046875
6717.814387729,2278.4521484375,1120.879150390625
6717.846944695,2278.4521484375,1122.3443603515625
6717.848050503,2276.149658203125,1123.076904296875
6717.885611862,2276.149658203125,1120.879150390625
6717.887096423,2276.149658203125,1119.4139404296875
6717.919428864,2273.8515625,1119.4139404296875
6717.92057679,2273.8515625,1122.3443603515625
6717.953168141,2276.149658203125,1123.076904296875
6717.985702599,2273.8515625,1121.6116943359375
6717.986876163,2273.8515625,1123.076904296875
6718.019407336,2273.8515625,1123.8095703125
6718.051898591,2271.558349609375,1124.5421142578125
6718.053116515,2273.8515625,1125.2747802734375
6718.085756316,2273.8515625,1125.2747802734375
6718.086898256,2273.8515625,1125.2747802734375
6718.119468314,2273.8515625,1125.2747802734375
6718.120793236,2271.558349609375,1125.2747802734375
6718.153103476,2273.8515625,1126.00732421875
6718.211976211,2271.558349609375,1125.2747802734375
6718.213118108,2273.8515625,1126.00732421875
6718.214298985,2271.558349609375,1125.2747802734375
6718.269411356,2273.8515625,1125.2747802734375
6718.270558767,2273.8515625,1125.2747802734375
6718.271811795,2273.8515625,1125.2747802734375
6718.304458519,2271.558349609375,1125.2747802734375
6718.3055868,2273.8515625,1126.00732421875
6718.338179941,2273.8515625,1125.2747802734375
6718.345719836,2271.558349609375,1125.2747802734375
6718.378102875,2273.8515625,1125.2747802734375
6718.410892367,2273.8515625,1125.2747802734375
6718.411865274,2271.558349609375,1125.2747802734375
6718.444924046,2271.558349609375,1125.2747802734375
6718.445728332,2271.558349609375,1126.00732421875
6718.50956464,2271.558349609375,1126.00732421875
6718.510613679,2269.26953125,1126.00732421875
6718.511826554,2271.558349609375,1128.937744140625
6718.544366895,2269.26953125,1127.4725341796875
6718.545589832,2271.558349609375,1129.6702880859375
6718.578151546,2269.26953125,1127.4725341796875
6718.610918235,2271.558349609375,1129.6702880859375
6718.611856221,2271.558349609375,1128.205078125
6718.644755644,2271.558349609375,1126.7398681640625
6718.645737894,2271.558349609375,1126.7398681640625
6718.678181252,2271.558349609375,1126.7398681640625
6718.710965359,2271.558349609375,1126.00732421875
6718.71196164,2269.26953125,1126.00732421875
6718.744431325,2266.9853515625,1128.937744140625
6718.74568571,2269.26953125,1128.205078125
6718.811008032,2271.558349609375,1130.4029541015625
6718.812084242,2269.26953125,1128.205078125
6718.81352592,2269.26953125,1129.6702880859375
6718.845651113,2266.9853515625,1130.4029541015625
6718.846878434,2269.26953125,1129.6702880859375
6718.87941827,2269.26953125,1130.4029541015625
6718.880596528,2271.558349609375,1131.135498046875
6718.909603452,2269.26953125,1128.937744140625
6718.941897831,2266.9853515625,1130.4029541015625
6718.943031832,2269.26953125,1128.937744140625
6718.975973212,2269.26953125,1130.4029541015625
6719.00811219,2269.26953125,1131.135498046875
6719.009273506,2269.26953125,1131.135498046875
6719.042143995,2269.26953125,1131.8681640625
6719.043065704,2271.558349609375,1131.8681640625
6719.110639742,2269.26953125,1128.937744140625
6719.111933146,2269.26953125,1130.4029541015625
6719.113155764,2271.558349609375,1131.135498046875
6719.145702076,2269.26953125,1128.937744140625
6719.146927319,2271.558349609375,1130.4029541015625
6719.179460164,2271.558349609375,1128.205078125
6719.184485082,2269.26953125,1127.4725341796875
6719.216943048,2269.26953125,1129.6702880859375
6719.218153921,2271.558349609375,1130.4029541015625
6719.250681903,2269.26953125,1128.205078125
6719.283199013,2266.9853515625,1130.4029541015625
6719.284350562,2269.26953125,1128.205078125
6719.316934812,2269.26953125,1130.4029541015625
6719.349421886,2269.26953125,1131.135498046875
6719.350573311,2269.26953125,1131.135498046875
6719.422242184,2269.26953125,1131.8681640625
6719.423156066,2269.26953125,1131.8681640625
6719.424321737,2266.9853515625,1132.6007080078125
6719.425570524,2269.26953125,1129.6702880859375
6719.458182138,2271.558349609375,1130.4029541015625
6719.463063043,2269.26953125,1128.937744140625
6719.495884823,2269.26953125,1130.4029541015625
6719.549437119,2269.26953125,1131.135498046875
6719.550632464,2271.558349609375,1131.135498046875
6719.551777459,2271.558349609375,1128.205078125
6719.584550248,2269.26953125,1127.4725341796875
6719.586003802,2271.558349609375,1129.6702880859375
6719.618217316,2269.26953125,1127.4725341796875
6719.623182947,2271.558349609375,1129.6702880859375
6719.655611335,2271.558349609375,1127.4725341796875
6719.709631337,2271.558349609375,1126.7398681640625
6719.710575172,2271.558349609375,1126.00732421875
6719.711827573,2271.558349609375,1126.00732421875
6719.723135804,2271.558349609375,1126.00732421875
6719.755818854,2269.26953125,1126.00732421875
6719.789780946,2271.558349609375,1128.937744140625
6719.790717677,2271.558349609375,1127.4725341796875
6719.823209534,2271.558349609375,1126.7398681640625
6719.824376354,2271.558349609375,1126.7398681640625
6719.857228655,2271.558349609375,1126.00732421875
6719.858088674,2271.558349609375,1126.00732421875
6719.890875265,2273.8515625,1126.00732421875
6719.923210169,2271.558349609375,1125.2747802734375
6719.924533194,2271.558349609375,1126.00732421875
6719.957118236,2273.8515625,1126.00732421875
6720.008138197,2271.558349609375,1125.2747802734375
6720.009399412,2273.8515625,1125.2747802734375
6720.010536739,2273.8515625,1125.2747802734375
6720.043525052,2271.558349609375,1125.2747802734375
6720.044363083,2273.8515625,1125.2747802734375
6720.07686642,2273.8515625,1125.2747802734375
6720.109483589,2273.8515625,1125.2747802734375
6720.110578348,2276.149658203125,1125.2747802734375
6720.143542534,2273.8515625,1121.6116943359375
6720.144458168,2273.8515625,1123.8095703125
6720.189348101,2273.8515625,1124.5421142578125
6720.190522847,2273.8515625,1124.5421142578125
6720.223477493,2276.149658203125,1124.5421142578125
6720.224797221,2273.8515625,1122.3443603515625
6720.257037072,2276.149658203125,1123.8095703125
6720.305663867,2276.149658203125,1120.879150390625
6720.306768725,2276.149658203125,1120.146484375
6720.308159646,2276.149658203125,1119.4139404296875
6720.340913367,2276.149658203125,1119.4139404296875
6720.342365481,2278.4521484375,1119.4139404296875
6720.374449456,2278.4521484375,1120.879150390625
6720.40712213,2278.4521484375,1122.3443603515625
6720.408346172,2278.4521484375,1122.3443603515625
6720.440877042,2278.4521484375,1123.076904296875
6720.441898298,2278.4521484375,1123.076904296875
6720.474639963,2278.4521484375,1123.076904296875
6720.479528801,2278.4521484375,1123.076904296875
6720.512278872,2278.4521484375,1123.076904296875
6720.54437125,2276.149658203125,1123.076904296875
6720.545579949,2278.4521484375,1120.879150390625
6720.617205069,2276.149658203125,1122.3443603515625
6720.618559069,2280.759521484375,1120.146484375
6720.619492299,2280.759521484375,1119.4139404296875
6720.652076238,2280.759521484375,1117.94873046875
6720.653077902,2278.4521484375,1117.94873046875
6720.685763972,2278.4521484375,1120.146484375
6720.686861584,2280.759521484375,1122.3443603515625
6720.719570681,2278.4521484375,1118.6812744140625
6720.720583831,2280.759521484375,1121.6116943359375
6720.753294906,2278.4521484375,1119.4139404296875
6720.785817812,2280.759521484375,1120.879150390625
6720.78679677,2280.759521484375,1118.6812744140625
6720.829556139,2278.4521484375,1117.94873046875
6720.830838802,2280.759521484375,1120.879150390625
6720.86332625,2276.149658203125,1118.6812744140625
6720.864336494,2278.4521484375,1118.6812744140625
6720.908445249,2280.759521484375,1120.879150390625
6720.909919318,2280.759521484375,1119.4139404296875
6720.942211939,2278.4521484375,1117.94873046875
6720.943102166,2280.759521484375,1120.879150390625
6720.975946899,2283.071533203125,1118.6812744140625
6720.976915506,2280.759521484375,1117.94873046875
6721.009537943,2283.071533203125,1117.216064453125
6721.042235436,2278.4521484375,1116.4835205078125
6721.043260888,2280.759521484375,1120.146484375
6721.076004318,2283.071533203125,1118.6812744140625
6721.108474933,2280.759521484375,1117.216064453125
6721.109431631,2283.071533203125,1117.216064453125
6721.142257459,2280.759521484375,1116.4835205078125
6721.143507778,2280.759521484375,1117.216064453125
6721.215991223,2283.071533203125,1117.216064453125
6721.217242766,2280.759521484375,1116.4835205078125
6721.218289096,2280.759521484375,1116.4835205078125
6721.226012877,2280.759521484375,1117.216064453125
6721.258303032,2280.759521484375,1117.216064453125
6721.29081071,2280.759521484375,1117.216064453125
6721.291949582,2283.071533203125,1117.216064453125
6721.324772683,2280.759521484375,1117.216064453125
6721.326170447,2280.759521484375,1116.4835205078125
6721.35831229,2283.071533203125,1117.216064453125
6721.359476688,2283.071533203125,1117.216064453125
6721.392195185,2280.759521484375,1116.4835205078125
6721.424760445,2280.759521484375,1116.4835205078125
6721.425978736,2283.071533203125,1117.216064453125
6721.469516013,2287.70947265625,1116.4835205078125
6721.470746553,2290.03564453125,1115.7509765625
6721.512081695,2287.70947265625,1112.820556640625
6721.51319208,2290.03564453125,1113.5531005859375
6721.545840987,2287.70947265625,1111.3553466796875
6721.547055629,2287.70947265625,1113.5531005859375
6721.579543559,2287.70947265625,1114.2857666015625
6721.58063636,2287.70947265625,1115.018310546875
6721.614273172,2287.70947265625,1115.018310546875
6721.620773558,2285.38818359375,1115.018310546875
6721.653315081,2287.70947265625,1112.820556640625
6721.685901989,2287.70947265625,1114.2857666015625
6721.68698612,2285.38818359375,1115.018310546875
6721.719667107,2285.38818359375,1112.820556640625
6721.72067839,2285.38818359375,1111.3553466796875
6721.753432466,2285.38818359375,1110.6226806640625
6721.758579317,2285.38818359375,1110.6226806640625
6721.817079294,2285.38818359375,1110.6226806640625
6721.818252969,2285.38818359375,1110.6226806640625
6721.823489513,2285.38818359375,1110.6226806640625
6721.855722443,2285.38818359375,1110.6226806640625
6721.888274855,2283.071533203125,1110.6226806640625
6721.889462622,2285.38818359375,1113.5531005859375
6721.922197841,2283.071533203125,1112.087890625
6721.923522645,2285.38818359375,1114.2857666015625
6721.955886167,2283.071533203125,1112.087890625
6721.957020951,2283.071533203125,1115.018310546875
6721.989689143,2283.071533203125,1115.7509765625
6722.022012578,2280.759521484375,1115.7509765625
6722.023307447,2283.071533203125,1116.4835205078125
6722.055996771,2280.759521484375,1116.4835205078125
6722.128412957,2280.759521484375,1117.216064453125
6722.129440777,2280.759521484375,1117.216064453125
6722.131088524,2280.759521484375,1117.216064453125
6722.142148755,2283.071533203125,1117.216064453125
6722.143231754,2283.071533203125,1117.216064453125
6722.175728656,2283.071533203125,1116.4835205078125
6722.183322679,2283.071533203125,1116.4835205078125
6722.215891216,2283.071533203125,1116.4835205078125
6722.249735453,2283.071533203125,1116.4835205078125
6722.250986022,2283.071533203125,1116.4835205078125
6722.28337109,2280.759521484375,1116.4835205078125
6722.284451511,2283.071533203125,1117.216064453125
6722.318033233,2283.071533203125,1117.216064453125
6722.322028993,2283.071533203125,1116.4835205078125
6722.35476253,2283.071533203125,1116.4835205078125
6722.409558082,2283.071533203125,1116.4835205078125
6722.410750026,2283.071533203125,1116.4835205078125
6722.411913795,2280.759521484375,1116.4835205078125
6722.44455706,2280.759521484375,1116.4835205078125
6722.445695202,2283.071533203125,1117.216064453125
6722.478362847,2283.071533203125,1116.4835205078125
6722.479495151,2285.38818359375,1116.4835205078125
6722.512133828,2285.38818359375,1113.5531005859375
6722.544571761,2285.38818359375,1112.087890625
6722.545648027,2283.071533203125,1111.3553466796875
6722.578284981,2285.38818359375,1113.5531005859375
6722.61095189,2285.38818359375,1112.087890625
6722.611943304,2285.38818359375,1110.6226806640625
6722.644554233,2280.759521484375,1110.6226806640625
6722.645795966,2285.38818359375,1114.2857666015625
6722.714564333,2283.071533203125,1112.087890625
6722.715662821,2285.38818359375,1114.2857666015625
6722.716954507,2283.071533203125,1112.087890625
6722.718242798,2283.071533203125,1114.2857666015625
6722.749638068,2285.38818359375,1115.7509765625
6722.782216791,2283.071533203125,1112.820556640625
6722.783240071,2285.38818359375,1115.018310546875
6722.815811946,2283.071533203125,1112.087890625
6722.823601586,2285.38818359375,1115.018310546875
6722.855965781,2283.071533203125,1112.820556640625
6722.888341018,2285.38818359375,1114.2857666015625
6722.889452022,2285.38818359375,1112.820556640625
6722.922292728,2283.071533203125,1110.6226806640625
6722.923312887,2285.38818359375,1113.5531005859375
6722.956060504,2285.38818359375,1112.087890625
6722.96380487,2285.38818359375,1111.3553466796875
6723.009788521,2285.38818359375,1110.6226806640625
6723.010715068,2285.38818359375,1110.6226806640625
6723.043341985,2280.759521484375,1110.6226806640625
6723.044447673,2285.38818359375,1114.2857666015625
6723.077190157,2285.38818359375,1112.087890625
6723.07823705,2283.071533203125,1111.3553466796875
6723.110836197,2283.071533203125,1114.2857666015625
6723.143266281,2280.759521484375,1115.018310546875
6723.144541441,2283.071533203125,1116.4835205078125
6723.177157068,2283.071533203125,1115.7509765625
6723.184664747,2285.38818359375,1116.4835205078125
6723.21723956,2283.071533203125,1113.5531005859375
6723.218240435,2283.071533203125,1115.018310546875
6723.251130915,2285.38818359375,1115.7509765625
6723.318672376,2283.071533203125,1112.820556640625
6723.319564397,2285.38818359375,1115.018310546875
6723.32116234,2285.38818359375,1112.087890625
6723.322289809,2285.38818359375,1111.3553466796875
6723.354798316,2285.38818359375,1111.3553466796875
6723.355748927,2285.38818359375,1110.6226806640625
6723.389804158,2285.38818359375,1110.6226806640625
6723.422240048,2283.071533203125,1109.89013671875
6723.423319566,2283.071533203125,1113.5531005859375
6723.455805203,2285.38818359375,1115.018310546875
6723.463271423,2285.38818359375,1112.087890625
6723.495777123,2285.38818359375,1111.3553466796875
6723.528375086,2285.38818359375,1110.6226806640625
6723.529456712,2285.38818359375,1110.6226806640625
6723.562033492,2283.071533203125,1110.6226806640625
6723.563220457,2285.38818359375,1113.5531005859375
6723.610781761,2285.38818359375,1112.087890625
6723.612004066,2285.38818359375,1111.3553466796875
6723.644525052,2283.071533203125,1110.6226806640625
6723.645712299,2283.071533203125,1113.5531005859375
6723.678542663,2283.071533203125,1115.018310546875
6723.685783323,2283.071533203125,1115.7509765625
6723.718249362,2285.38818359375,1115.7509765625
6723.719435091,2285.38818359375,1113.5531005859375
6723.745834309,2285.38818359375,1112.087890625
6723.779559093,2283.071533203125,1111.3553466796875
6723.780646955,2285.38818359375,1113.5531005859375
6723.813566321,2285.38818359375,1112.087890625
6723.845960244,2283.071533203125,1111.3553466796875
6723.84698838,2285.38818359375,1113.5531005859375
6723.913314775,2283.071533203125,1112.087890625
6723.914399588,2285.38818359375,1114.2857666015625
6723.916070163,2285.38818359375,1112.087890625
6723.94826525,2285.38818359375,1111.3553466796875
6723.949430671,2283.071533203125,1111.3553466796875
6723.981979671,2285.38818359375,1113.5531005859375
6723.983350837,2283.071533203125,1112.087890625
6724.029755567,2283.071533203125,1114.2857666015625
6724.03080762,2285.38818359375,1115.018310546875
6724.06350064,2283.071533203125,1112.820556640625
6724.064527339,2285.38818359375,1114.2857666015625
6724.097219378,2280.759521484375,1112.820556640625
6724.098232843,2283.071533203125,1115.018310546875
6724.131004091,2283.071533203125,1115.7509765625
6724.163535214,2280.759521484375,1116.4835205078125
6724.164466172,2283.071533203125,1116.4835205078125
6724.208334661,2280.759521484375,1116.4835205078125
6724.209465975,2280.759521484375,1117.216064453125
6724.242220278,2280.759521484375,1117.216064453125
6724.243431988,2280.759521484375,1117.216064453125
6724.275848281,2280.759521484375,1117.216064453125
6724.283559704,2280.759521484375,1117.216064453125
6724.316088942,2283.071533203125,1117.216064453125
6724.322183453,2278.4521484375,1117.216064453125
6724.354555,2280.759521484375,1120.146484375
6724.362012973,2280.759521484375,1118.6812744140625
6724.394532114,2278.4521484375,1117.94873046875
6724.427002851,2280.759521484375,1120.146484375
6724.428166817,2278.4521484375,1118.6812744140625
6724.460837827,2280.759521484375,1120.879150390625
6724.461968913,2280.759521484375,1118.6812744140625
6724.512287453,2278.4521484375,1118.6812744140625
6724.513698992,2280.759521484375,1120.879150390625
6724.520843163,2278.4521484375,1118.6812744140625
6724.553388483,2278.4521484375,1121.6116943359375
6724.560797536,2278.4521484375,1122.3443603515625
6724.593389436,2278.4521484375,1122.3443603515625
6724.625846222,2280.759521484375,1123.076904296875
6724.627021251,2278.4521484375,1120.146484375
6724.669557074,2278.4521484375,1120.879150390625
6724.671250761,2278.4521484375,1122.3443603515625
6724.704615661,2276.149658203125,1122.3443603515625
6724.705685744,2278.4521484375,1120.879150390625
6724.738447251,2276.149658203125,1121.6116943359375
6724.739440639,2278.4521484375,1120.146484375
6724.772348559,2276.149658203125,1121.6116943359375
6724.808483606,2276.149658203125,1120.146484375
6724.809424457,2276.149658203125,1119.4139404296875
6724.842315673,2273.8515625,1118.6812744140625
6724.843442799,2276.149658203125,1122.3443603515625
6724.875808944,2276.149658203125,1120.146484375
6724.87699923,2276.149658203125,1119.4139404296875
6724.909734052,2276.149658203125,1119.4139404296875
6724.942228542,2271.558349609375,1118.6812744140625
6724.943668671,2276.149658203125,1122.3443603515625
6724.975764769,2273.8515625,1120.879150390625
6724.976962816,2273.8515625,1123.076904296875
6725.009474476,2273.8515625,1123.076904296875
6725.042204653,2271.558349609375,1123.8095703125
6725.043736745,2271.558349609375,1125.2747802734375
6725.113524908,2271.558349609375,1126.00732421875
6725.114446516,2271.558349609375,1126.00732421875
6725.116078189,2271.558349609375,1125.2747802734375
6725.117005655,2269.26953125,1125.2747802734375
6725.14957808,2271.558349609375,1128.205078125
6725.182216096,2269.26953125,1126.7398681640625
6725.18337398,2271.558349609375,1129.6702880859375
6725.215747332,2271.558349609375,1128.205078125
6725.248630593,2269.26953125,1126.7398681640625
6725.249926418,2271.558349609375,1129.6702880859375
6725.282414597,2269.26953125,1127.4725341796875
6725.283776213,2271.558349609375,1130.4029541015625
6725.310734473,2271.558349609375,1127.4725341796875
6725.343497411,2269.26953125,1127.4725341796875
6725.344466201,2269.26953125,1129.6702880859375
6725.409508286,2266.9853515625,1130.4029541015625
6725.410719294,2269.26953125,1128.937744140625
6725.411979647,2269.26953125,1130.4029541015625
6725.444560365,2266.9853515625,1131.135498046875
6725.445742268,2266.9853515625,1128.937744140625
6725.478505426,2266.9853515625,1127.4725341796875
6725.479415032,2269.26953125,1127.4725341796875
6725.512139295,2269.26953125,1129.6702880859375
6725.544877438,2269.26953125,1130.4029541015625
6725.545745178,2269.26953125,1131.8681640625
6725.578561167,2269.26953125,1131.135498046875
6725.579478769,2269.26953125,1131.8681640625
6725.612161285,2269.26953125,1131.8681640625
6725.617163107,2266.9853515625,1131.8681640625
6725.649633111,2266.9853515625,1129.6702880859375
6725.71235826,2266.9853515625,1128.205078125
6725.713612033,2266.9853515625,1127.4725341796875
6725.714657743,2266.9853515625,1126.7398681640625
6725.747226068,2266.9853515625,1126.7398681640625
6725.748434774,2266.9853515625,1126.7398681640625
6725.780948214,2266.9853515625,1127.4725341796875
6725.781992225,2266.9853515625,1126.7398681640625
6725.814723634,2266.9853515625,1127.4725341796875
6725.815774557,2266.9853515625,1127.4725341796875
6725.84866626,2266.9853515625,1126.7398681640625
6725.88114969,2264.705810546875,1127.4725341796875
6725.882185371,2266.9853515625,1130.4029541015625
6725.949775423,2266.9853515625,1128.205078125
6725.950797434,2266.9853515625,1127.4725341796875
6725.952092209,2266.9853515625,1127.4725341796875
6726.01095753,2264.705810546875,1127.4725341796875
6726.012076122,2266.9853515625,1130.4029541015625
6726.013482715,2266.9853515625,1128.937744140625
6726.045909771,2266.9853515625,1127.4725341796875
6726.047100696,2266.9853515625,1127.4725341796875
6726.079653152,2266.9853515625,1126.7398681640625
6726.080915404,2266.9853515625,1126.7398681640625
6726.113623652,2266.9853515625,1126.7398681640625
6726.146110858,2266.9853515625,1126.7398681640625
6726.147241318,2266.9853515625,1126.7398681640625
6726.179810911,2266.9853515625,1127.4725341796875
6726.180933147,2266.9853515625,1127.4725341796875
6726.213433458,2266.9853515625,1127.4725341796875
6726.246176197,2266.9853515625,1127.4725341796875
6726.247534187,2266.9853515625,1127.4725341796875
6726.315010674,2266.9853515625,1126.7398681640625
6726.315971612,2266.9853515625,1126.7398681640625
6726.317138862,2266.9853515625,1126.7398681640625
6726.318400312,2264.705810546875,1126.7398681640625
6726.351041801,2264.705810546875,1130.4029541015625
6726.383780416,2266.9853515625,1131.135498046875
6726.384675788,2266.9853515625,1128.937744140625
6726.417175653,2266.9853515625,1128.205078125
6726.418275084,2266.9853515625,1127.4725341796875
6726.450899128,2266.9853515625,1127.4725341796875
6726.483521034,2266.9853515625,1127.4725341796875
6726.484621701,2266.9853515625,1126.7398681640625
6726.517292069,2266.9853515625,1127.4725341796875
6726.518545931,2266.9853515625,1127.4725341796875
6726.55101999,2269.26953125,1126.7398681640625
6726.555980701,2266.9853515625,1129.6702880859375
6726.624851717,2269.26953125,1128.205078125
6726.625929189,2269.26953125,1130.4029541015625
6726.627103619,2266.9853515625,1131.135498046875
6726.659677076,2264.705810546875,1128.937744140625
6726.660869577,2266.9853515625,1131.135498046875
6726.693747173,2269.26953125,1128.937744140625
6726.726153751,2266.9853515625,1130.4029541015625
6726.727180782,2269.26953125,1128.937744140625
6726.759874127,2269.26953125,1130.4029541015625
6726.760894279,2269.26953125,1131.135498046875
6726.79344915,2269.26953125,1131.135498046875
6726.826104419,2269.26953125,1131.135498046875
6726.82715493,2271.558349609375,1131.135498046875
6726.859686333,2269.26953125,1128.205078125
6726.860794316,2271.558349609375,1130.4029541015625
6726.908376918,2271.558349609375,1127.4725341796875
6726.909545101,2271.558349609375,1126.7398681640625
6726.942149177,2266.9853515625,1126.00732421875
6726.943377572,2271.558349609375,1126.7398681640625
6726.976126789,2269.26953125,1126.00732421875
6726.977161797,2271.558349609375,1128.937744140625
6727.009678401,2271.558349609375,1127.4725341796875
6727.042125999,2271.558349609375,1126.7398681640625
6727.043297105,2271.558349609375,1126.00732421875
6727.075897349,2269.26953125,1126.00732421875
6727.077497501,2269.26953125,1128.937744140625
6727.109644722,2271.558349609375,1130.4029541015625
6727.1424999,2273.8515625,1128.205078125
6727.143844473,2273.8515625,1126.00732421875
6727.21600891,2273.8515625,1125.2747802734375
6727.217084645,2273.8515625,1125.2747802734375
6727.218528343,2273.8515625,1125.2747802734375
6727.239744964,2271.558349609375,1125.2747802734375
6727.240800321,2276.149658203125,1126.00732421875
6727.273678987,2276.149658203125,1122.3443603515625
6727.278680551,2278.4521484375,1120.879150390625
6727.311040312,2278.4521484375,1121.6116943359375
6727.343402978,2285.38818359375,1123.076904296875
6727.344555335,2290.03564453125,1116.4835205078125
6727.377328752,2285.38818359375,1112.820556640625
6727.378404049,2292.366455078125,1111.3553466796875
6727.411271428,2301.7373046875,1110.6226806640625
6727.443684597,2308.81591796875,1259.3406982421875
6727.445015243,2318.322265625,1323.076904296875
6727.509766348,2327.906982421875,1345.78759765625
6727.510851322,2335.147705078125,1350.18310546875
6727.512545767,2340.0,1349.4505615234375
6727.513632198,2347.31640625,1344.3223876953125
6727.545932325,2347.31640625,1336.2637939453125
6727.578708306,2342.43359375,1331.8681640625
6727.579607198,2327.906982421875,1332.6007080078125
6727.612447269,2313.559326171875,1343.5897216796875
6727.646260635,2308.81591796875,1358.24169921875
6727.647212901,2304.092041015625,1369.230712890625
6727.679890671,2297.042236328125,1377.2894287109375
6727.681002164,2292.366455078125,1388.2784423828125
6727.713578843,2292.366455078125,1241.025634765625
6727.71836427,2285.38818359375,1172.1611328125
6727.750961555,2285.38818359375,1139.9267578125
6727.817193704,2280.759521484375,1125.2747802734375
6727.81961046,2285.38818359375,1120.879150390625
6727.820827835,2290.03564453125,1115.7509765625
6727.822082742,2287.70947265625,1112.087890625
6727.869700346,2313.559326171875,1113.5531005859375
6727.87083229,2387.122314453125,1249.81689453125
6727.878469926,2420.472900390625,1266.6666259765625
6727.910873854,2468.21923828125,1254.21240234375
6727.918370545,2506.677734375,1225.6409912109375
6727.952129766,2509.470703125,1191.208740234375
6727.961401686,2515.075439453125,1171.4285888671875
6727.995869994,2515.075439453125,1161.172119140625
6727.997318685,2509.470703125,1156.0439453125
6728.029694073,2509.470703125,1154.5787353515625
6728.062114802,2517.88720703125,1153.84619140625
6728.063355109,2452.095703125,1151.6483154296875
6728.108582187,2428.302001953125,1183.150146484375
6728.109580362,2428.302001953125,1210.2564697265625
6728.142269752,2364.56689453125,1222.7105712890625
6728.143383637,2446.76806640625,1268.1318359375
6728.176094284,2454.768310546875,1241.75830078125
6728.177635865,2460.131103515625,1221.97802734375
6728.211033374,2454.768310546875,1212.4542236328125
6728.21836613,2498.336181640625,1208.05859375
6728.250923887,2673.293701171875,1184.6153564453125
6728.28367421,2997.006103515625,1256.4102783203125
6728.284667993,2584.33740234375,1156.776611328125
6728.317220165,2470.927001953125,1125.2747802734375
6728.318390499,2436.181640625,1161.172119140625
6728.35100569,2417.87451171875,1197.069580078125
6728.358680062,2412.694091796875,1222.7105712890625
6728.419649711,2417.87451171875,1238.09521484375
6728.421194492,2430.9228515625,1241.75830078125
6728.422505705,2420.472900390625,1237.3626708984375
6728.454712528,2397.285888671875,1241.025634765625
6728.50988148,2379.55615234375,1256.4102783203125
6728.511216922,2372.037841796875,1275.4578857421875
6728.512100639,2362.087158203125,1285.7142333984375
6728.519739086,2354.678466796875,1297.4359130859375
6728.55215035,2349.76513671875,1310.6226806640625
6728.557261244,2340.0,1319.4139404296875
6728.589781131,2332.729248046875,1330.4029541015625
6728.622148212,2325.50341796875,1338.4615478515625
6728.623381875,2315.938232421875,1350.915771484375
6728.656205468,2306.45166015625,1362.6373291015625
6728.657579486,2301.7373046875,1375.82421875
6728.708406627,2292.366455078125,1383.8828125
6728.709553957,2292.366455078125,1238.827880859375
6728.742372397,2285.38818359375,1171.4285888671875
6728.743378512,2278.4521484375,1139.9267578125
6728.776126349,2276.149658203125,1131.8681640625
6728.780982608,2264.705810546875,1125.2747802734375
6728.814669247,2266.9853515625,1129.6702880859375
6728.814765725,2271.558349609375,1128.205078125
6728.847124891,2266.9853515625,1127.4725341796875
6728.888400658,2260.16064453125,1127.4725341796875
6728.889709948,2260.16064453125,1133.3333740234375
6728.922391571,2255.633544921875,1136.996337890625
6728.923521636,2255.633544921875,1139.9267578125
6728.956030027,2255.633544921875,1140.6593017578125
6728.957098222,2255.633544921875,1141.3919677734375
6729.017501249,2253.376708984375,1142.12451171875
6729.01835335,2253.376708984375,1142.857177734375
6729.020856326,2253.376708984375,1142.857177734375
6729.053502367,2251.12451171875,1142.857177734375
6729.058369416,2246.63330078125,1146.5201416015625
6729.090938104,2244.39453125,1148.7178955078125
6729.123791876,2242.160400390625,1150.18310546875
6729.124594351,2239.930419921875,1154.5787353515625
6729.150937782,2237.704833984375,1153.84619140625
6729.157183267,2237.704833984375,1156.776611328125
6729.189882753,2235.48388671875,1158.24169921875
6729.222323992,2231.054931640625,1159.7069091796875
6729.223774322,2233.267333984375,1161.172119140625
6729.256121439,2228.84716796875,1164.1025390625
6729.260901228,2228.84716796875,1166.3004150390625
6729.30713243,2224.4443359375,1167.765625
6729.308387404,2224.4443359375,1172.1611328125
6729.341072576,2222.24951171875,1174.3590087890625
6729.342633975,2224.4443359375,1172.893798828125
6729.374793777,2228.84716796875,1174.3590087890625
6729.375906508,2228.84716796875,1171.4285888671875
6729.408413555,2228.84716796875,1169.96337890625
6729.441130123,2226.6435546875,1169.96337890625
6729.444817305,2226.6435546875,1169.96337890625
6729.478445599,2235.48388671875,1169.96337890625
6729.47955506,2244.39453125,1164.835205078125
6729.512253683,2246.63330078125,1158.24169921875
6729.518403636,2255.633544921875,1154.5787353515625
6729.550895786,2294.701904296875,1147.9853515625
6729.613554444,2318.322265625,1125.2747802734375
6729.6146725,2313.559326171875,1253.4798583984375
6729.615853405,2311.185302734375,1315.7509765625
6729.61702614,2306.45166015625,1348.7178955078125
6729.649971536,2306.45166015625,1368.4981689453125
6729.657475105,2304.092041015625,1377.2894287109375
6729.689622045,2301.7373046875,1381.6849365234375
6729.723418431,2287.70947265625,1386.08056640625
6729.72463515,2235.48388671875,1243.223388671875
6729.757206367,2222.24951171875,1200.7325439453125
6729.758294215,2217.873046875,1185.3480224609375
6729.789810999,2222.24951171875,1182.4176025390625
6729.794613699,2220.05908203125,1177.2894287109375
6729.827148859,2215.691162109375,1177.2894287109375
6729.859684265,2213.513427734375,1181.6849365234375
6729.860790685,2215.691162109375,1180.952392578125
6729.886014665,2215.691162109375,1183.8828125
6729.918405004,2213.513427734375,1184.6153564453125
6729.919530602,2215.691162109375,1182.4176025390625
6729.952201992,2213.513427734375,1184.6153564453125
6729.953397385,2213.513427734375,1182.4176025390625
6729.985882962,2213.513427734375,1182.4176025390625
6730.01861738,2213.513427734375,1181.6849365234375
6730.019645011,2213.513427734375,1181.6849365234375
6730.052429176,2215.691162109375,1180.952392578125
6730.084726429,2215.691162109375,1183.150146484375
6730.086084498,2213.513427734375,1184.6153564453125
6730.118389943,2213.513427734375,1182.4176025390625
6730.119525066,2207.00634765625,1182.4176025390625
6730.152364109,2207.00634765625,1189.010986328125
6730.1572071,2204.845703125,1191.94140625
6730.219764929,2202.689453125,1191.208740234375
6730.220898751,2200.537353515625,1194.13916015625
6730.222597354,2200.537353515625,1196.3370361328125
6730.254658897,2196.245849609375,1197.069580078125
6730.255834967,2196.245849609375,1199.2674560546875
6730.288574771,2196.245849609375,1200.0
6730.321001704,2196.245849609375,1200.0
6730.322099551,2196.245849609375,1200.0
6730.354871482,2194.106201171875,1200.7325439453125
6730.35587901,2194.106201171875,1203.6629638671875
6730.388631921,2196.245849609375,1205.86083984375
6730.395978598,2191.970703125,1202.930419921875
6730.429639749,2191.970703125,1205.86083984375
6730.43727821,2191.970703125,1206.5933837890625
6730.469813161,2187.71240234375,1208.05859375
6730.509643234,2185.589599609375,1209.5238037109375
6730.510774789,2185.589599609375,1213.91943359375
6730.543582501,2183.470703125,1216.1171875
6730.544645131,2185.589599609375,1218.3150634765625
6730.577156536,2187.71240234375,1217.5823974609375
6730.578290103,2187.71240234375,1214.6519775390625
6730.611175604,2187.71240234375,1212.4542236328125
6730.615983104,2185.589599609375,1211.7215576171875
6730.648456714,2185.589599609375,1215.3846435546875
6730.681274021,2183.470703125,1216.849853515625
6730.682180724,2183.470703125,1218.3150634765625
6730.714758768,2181.35595703125,1219.047607421875
6730.719751136,2187.71240234375,1222.7105712890625
6730.752476753,2194.106201171875,1216.849853515625
6730.753800324,2204.845703125,1211.7215576171875
6730.823814872,2207.00634765625,1200.7325439453125
6730.824971809,2209.171142578125,1197.80224609375
6730.825981845,2207.00634765625,1192.6739501953125
6730.858788118,2200.537353515625,1194.13916015625
6730.863496433,2196.245849609375,1196.3370361328125
6730.896277713,2191.970703125,1198.5347900390625
6730.897681879,2191.970703125,1203.6629638671875
6730.930003064,2191.970703125,1205.86083984375
6730.937283572,2191.970703125,1207.3260498046875
6730.969985998,2191.970703125,1208.05859375
6731.002571767,2189.839599609375,1208.05859375
6731.003784449,2191.970703125,1211.7215576171875
6731.036250246,2194.106201171875,1209.5238037109375
6731.037251574,2194.106201171875,1208.05859375
6731.07003894,2196.245849609375,1207.3260498046875
6731.109970986,2196.245849609375,1203.6629638671875
6731.110970338,2198.389404296875,1202.19775390625
6731.118496794,2200.537353515625,1203.6629638671875
6731.151093056,2198.389404296875,1201.4652099609375
6731.158533168,2198.389404296875,1202.930419921875
6731.19109379,2196.245849609375,1203.6629638671875
6731.192146788,2196.245849609375,1202.19775390625
6731.224815416,2196.245849609375,1201.4652099609375
6731.257354193,2191.970703125,1200.7325439453125
6731.258397765,2189.839599609375,1205.128173828125
6731.291143495,2189.839599609375,1210.2564697265625
6731.323792646,2189.839599609375,1212.4542236328125
6731.324781927,2189.839599609375,1213.186767578125
6731.357219562,2187.71240234375,1213.91943359375
6731.358503362,2187.71240234375,1213.186767578125
6731.408510636,2187.71240234375,1211.7215576171875
6731.409703376,2189.839599609375,1211.7215576171875
6731.417499984,2189.839599609375,1213.186767578125
6731.449780085,2194.106201171875,1213.91943359375
6731.482432002,2194.106201171875,1210.2564697265625
6731.483498924,2194.106201171875,1208.791259765625
6731.516002337,2189.839599609375,1207.3260498046875
6731.517234351,2200.537353515625,1211.7215576171875
6731.549872827,2198.389404296875,1204.3956298828125
6731.55471393,2196.245849609375,1204.3956298828125
6731.587268035,2198.389404296875,1202.930419921875
6731.619783225,2200.537353515625,1203.6629638671875
6731.620903423,2196.245849609375,1200.7325439453125
6731.65383533,2189.839599609375,1200.7325439453125
6731.658591099,2191.970703125,1208.05859375
6731.731242723,2191.970703125,1208.05859375
6731.732254302,2191.970703125,1208.791259765625
6731.733387703,2189.839599609375,1208.05859375
