timestamp,GSR,PPG
5993.0400828,4648.60693359375,952.3809814453125
5993.112671898,4648.60693359375,952.3809814453125
5993.113526941,4648.60693359375,952.3809814453125
5993.1154903,4648.60693359375,952.3809814453125
5993.134817821,4648.60693359375,952.3809814453125
5993.137317068,4648.60693359375,952.3809814453125
5993.171264833,4648.60693359375,952.3809814453125
5993.172699164,4648.60693359375,952.3809814453125
5993.205011335,4648.60693359375,952.3809814453125
5993.206012208,4648.60693359375,952.3809814453125
5993.23861616,4648.60693359375,952.3809814453125
5993.2712831,4639.03173828125,952.3809814453125
5993.277431774,4648.60693359375,950.915771484375
5993.309776592,4648.60693359375,951.6483764648438
5993.31089511,4648.60693359375,952.3809814453125
5993.343759139,4648.60693359375,953.113525390625
5993.347518027,4648.60693359375,952.3809814453125
5993.39744069,4648.60693359375,952.3809814453125
5993.398389208,4648.60693359375,952.3809814453125
5993.431063925,4639.03173828125,952.3809814453125
5993.434766314,4648.60693359375,950.1831665039062
5993.467618385,4648.60693359375,951.6483764648438
5993.468467753,4648.60693359375,952.3809814453125
5993.502513915,4648.60693359375,952.3809814453125
5993.507406458,4648.60693359375,952.3809814453125
5993.539800413,4648.60693359375,952.3809814453125
5993.572446252,4648.60693359375,952.3809814453125
5993.573395345,4648.60693359375,952.3809814453125
5993.607631586,4639.03173828125,952.3809814453125
5993.608513131,4648.60693359375,950.1831665039062
5993.641195244,4648.60693359375,951.6483764648438
5993.646026634,4648.60693359375,952.3809814453125
5993.693669909,4639.03173828125,952.3809814453125
5993.694793849,4639.03173828125,950.1831665039062
5993.72777641,4648.60693359375,949.4505615234375
5993.728547632,4639.03173828125,950.915771484375
5993.771183289,4639.03173828125,949.4505615234375
5993.772301731,4639.03173828125,950.1831665039062
5993.805127187,4639.03173828125,948.7179565429688
5993.80599535,4639.03173828125,948.7179565429688
5993.838741274,4639.03173828125,948.7179565429688
5993.871368577,4639.03173828125,949.4505615234375
5993.872453121,4639.03173828125,948.7179565429688
5993.90513431,4639.03173828125,948.7179565429688
5993.912449221,4639.03173828125,948.7179565429688
5993.944947357,4639.03173828125,948.7179565429688
5993.99012969,4639.03173828125,949.4505615234375
5993.991140281,4639.03173828125,948.7179565429688
5993.992272262,4639.03173828125,948.7179565429688
5994.025036898,4639.03173828125,948.7179565429688
5994.057722808,4639.03173828125,948.7179565429688
5994.058457241,4639.03173828125,949.4505615234375
5994.091434197,4639.03173828125,948.7179565429688
5994.092408213,4639.03173828125,949.4505615234375
5994.125116367,4639.03173828125,949.4505615234375
5994.125975307,4648.60693359375,949.4505615234375
5994.158692509,4639.03173828125,950.915771484375
5994.191225509,4648.60693359375,949.4505615234375
5994.192343173,4648.60693359375,951.6483764648438
5994.225043261,4639.03173828125,952.3809814453125
5994.231126881,4648.60693359375,950.1831665039062
5994.294884257,4648.60693359375,950.915771484375
5994.296441518,4639.03173828125,952.3809814453125
5994.29743128,4639.03173828125,950.1831665039062
5994.332776974,4639.03173828125,949.4505615234375
5994.332872476,4639.03173828125,949.4505615234375
5994.365116195,4639.03173828125,949.4505615234375
5994.411230066,4639.03173828125,948.7179565429688
5994.412410482,4639.03173828125,948.7179565429688
5994.414060771,4639.03173828125,949.4505615234375
5994.447411653,4629.49658203125,948.7179565429688
5994.449916283,4639.03173828125,952.3809814453125
5994.482520958,4639.03173828125,950.915771484375
5994.487722897,4639.03173828125,949.4505615234375
5994.519972223,4639.03173828125,949.4505615234375
5994.552643528,4639.03173828125,948.7179565429688
5994.55395683,4639.03173828125,948.7179565429688
5994.593936843,4629.49658203125,948.7179565429688
5994.594809725,4639.03173828125,951.6483764648438
5994.627443682,4629.49658203125,950.1831665039062
5994.62859652,4629.49658203125,953.113525390625
5994.661158526,4620.0,953.8461303710938
5994.693705692,4620.0,954.5787353515625
5994.694833134,4629.49658203125,955.3113403320312
5994.727732359,4620.0,954.5787353515625
5994.728680012,4620.0,956.0439453125
5994.761553469,4629.49658203125,955.3113403320312
5994.76245626,4620.0,955.3113403320312
5994.794934659,4620.0,956.0439453125
5994.827538335,4620.0,955.3113403320312
5994.828640156,4620.0,956.0439453125
5994.901370963,4620.0,956.0439453125
5994.902395299,4620.0,956.0439453125
5994.903586147,4620.0,956.0439453125
5994.912623625,4620.0,956.0439453125
5994.944966953,4620.0,956.0439453125
5994.946074568,4610.54248046875,956.7765502929688
5994.978711286,4620.0,958.974365234375
5995.012383696,4610.54248046875,957.5091552734375
5995.013526393,4620.0,960.4395751953125
5995.051149251,4610.54248046875,957.5091552734375
5995.052290766,4620.0,959.7069702148438
5995.085025691,4610.54248046875,958.2417602539062
5995.086134617,4620.0,960.4395751953125
5995.118765962,4620.0,958.2417602539062
5995.151380462,4610.54248046875,957.5091552734375
5995.152728644,4610.54248046875,959.7069702148438
5995.191272142,4610.54248046875,961.1721801757812
5995.192314679,4610.54248046875,961.1721801757812
5995.226132278,4610.54248046875,961.90478515625
5995.23129307,4610.54248046875,961.90478515625
5995.263663847,4610.54248046875,961.90478515625
5995.264798799,4610.54248046875,961.90478515625
5995.297680649,4610.54248046875,961.90478515625
5995.33130406,4610.54248046875,962.6373901367188
5995.333882461,4610.54248046875,961.90478515625
5995.366347783,4610.54248046875,961.90478515625
5995.367409747,4610.54248046875,961.90478515625
5995.401183383,4610.54248046875,961.90478515625
5995.402378803,4601.12353515625,961.90478515625
5995.435122526,4601.12353515625,959.7069702148438
5995.490020389,4610.54248046875,958.2417602539062
5995.491106537,4601.12353515625,960.4395751953125
5995.492548237,4610.54248046875,958.974365234375
5995.525106806,4601.12353515625,960.4395751953125
5995.526108809,4601.12353515625,958.974365234375
5995.558720266,4610.54248046875,958.2417602539062
5995.591375483,4601.12353515625,960.4395751953125
5995.593046161,4601.12353515625,958.974365234375
5995.626361159,4610.54248046875,958.2417602539062
5995.627334695,4601.12353515625,959.7069702148438
5995.659995701,4601.12353515625,958.2417602539062
5995.691371271,4610.54248046875,957.5091552734375
5995.692327389,4601.12353515625,960.4395751953125
5995.725119801,4601.12353515625,958.2417602539062
5995.726120906,4601.12353515625,958.2417602539062
5995.79630882,4601.12353515625,957.5091552734375
5995.797287235,4601.12353515625,957.5091552734375
5995.798726046,4591.7431640625,957.5091552734375
5995.831203612,4591.7431640625,960.4395751953125
5995.832338518,4591.7431640625,962.6373901367188
5995.86513078,4601.12353515625,962.6373901367188
5995.872492519,4601.12353515625,960.4395751953125
5995.904921384,4591.7431640625,958.974365234375
5995.906310734,4591.7431640625,961.1721801757812
5995.932451026,4601.12353515625,962.6373901367188
5995.966378755,4601.12353515625,959.7069702148438
5995.967379059,4601.12353515625,958.974365234375
5996.000136748,4601.12353515625,958.2417602539062
5996.032587271,4591.7431640625,958.2417602539062
5996.033635899,4601.12353515625,961.1721801757812
5996.102606156,4591.7431640625,958.974365234375
5996.103700718,4601.12353515625,961.1721801757812
5996.104857797,4591.7431640625,959.7069702148438
5996.10615321,4601.12353515625,961.1721801757812
5996.138645806,4601.12353515625,959.7069702148438
5996.172481057,4591.7431640625,958.2417602539062
5996.173581207,4601.12353515625,961.1721801757812
5996.206219048,4591.7431640625,959.7069702148438
5996.213681134,4601.12353515625,961.1721801757812
5996.24621369,4591.7431640625,959.7069702148438
5996.247286835,4601.12353515625,961.90478515625
5996.280145615,4601.12353515625,959.7069702148438
5996.331376428,4601.12353515625,958.974365234375
5996.33270275,4601.12353515625,958.2417602539062
5996.333976719,4591.7431640625,957.5091552734375
5996.391118132,4591.7431640625,960.4395751953125
5996.392384768,4601.12353515625,961.90478515625
5996.393637251,4601.12353515625,959.7069702148438
5996.426156851,4601.12353515625,958.2417602539062
5996.42733093,4601.12353515625,958.2417602539062
5996.460100961,4601.12353515625,958.2417602539062
5996.492627606,4601.12353515625,957.5091552734375
5996.493947718,4601.12353515625,957.5091552734375
5996.526372734,4601.12353515625,957.5091552734375
5996.527444151,4601.12353515625,957.5091552734375
5996.559956477,4601.12353515625,957.5091552734375
5996.567698629,4601.12353515625,957.5091552734375
5996.599982167,4601.12353515625,957.5091552734375
5996.63247867,4601.12353515625,957.5091552734375
5996.633929391,4601.12353515625,957.5091552734375
5996.695141431,4591.7431640625,956.7765502929688
5996.696133626,4601.12353515625,960.4395751953125
5996.697288124,4591.7431640625,958.974365234375
5996.729935044,4591.7431640625,961.1721801757812
5996.731123167,4601.12353515625,962.6373901367188
5996.765112676,4601.12353515625,959.7069702148438
5996.766119321,4601.12353515625,958.974365234375
5996.798873388,4601.12353515625,958.2417602539062
5996.831375733,4601.12353515625,958.2417602539062
5996.832373373,4601.12353515625,957.5091552734375
5996.864929822,4591.7431640625,957.5091552734375
5996.866212628,4601.12353515625,961.1721801757812
5996.899952489,4601.12353515625,958.974365234375
5996.932612925,4591.7431640625,958.2417602539062
5996.933648361,4591.7431640625,961.1721801757812
5997.006224557,4591.7431640625,962.6373901367188
5997.007349129,4591.7431640625,962.6373901367188
5997.008542767,4591.7431640625,963.3699340820312
5997.013712406,4591.7431640625,963.3699340820312
5997.04615816,4591.7431640625,962.6373901367188
5997.051189801,4601.12353515625,963.3699340820312
5997.0836645,4591.7431640625,960.4395751953125
5997.084778842,4601.12353515625,961.90478515625
5997.117455332,4601.12353515625,959.7069702148438
5997.150117188,4591.7431640625,958.2417602539062
5997.151130402,4591.7431640625,961.1721801757812
5997.183820932,4591.7431640625,962.6373901367188
5997.184893225,4591.7431640625,963.3699340820312
5997.217457758,4601.12353515625,963.3699340820312
5997.25000787,4591.7431640625,959.7069702148438
5997.251054012,4591.7431640625,962.6373901367188
5997.292426276,4591.7431640625,962.6373901367188
5997.293557634,4591.7431640625,963.3699340820312
5997.326389602,4591.7431640625,963.3699340820312
5997.327759314,4601.12353515625,963.3699340820312
5997.36004462,4591.7431640625,960.4395751953125
5997.366395764,4591.7431640625,961.90478515625
5997.398666457,4591.7431640625,962.6373901367188
5997.431425033,4591.7431640625,962.6373901367188
5997.432328627,4601.12353515625,963.3699340820312
5997.464932535,4591.7431640625,960.4395751953125
5997.471690253,4582.40087890625,961.90478515625
5997.50370902,4601.12353515625,963.3699340820312
5997.508836939,4591.7431640625,960.4395751953125
5997.541186564,4591.7431640625,961.90478515625
5997.546071004,4591.7431640625,963.3699340820312
5997.620092465,4591.7431640625,963.3699340820312
5997.621061572,4591.7431640625,963.3699340820312
5997.632615465,4591.7431640625,963.3699340820312
5997.633615105,4591.7431640625,963.3699340820312
5997.666174203,4582.40087890625,963.3699340820312
5997.667361589,4591.7431640625,964.1025390625
5997.699934681,4591.7431640625,964.1025390625
5997.707391286,4591.7431640625,963.3699340820312
5997.74012641,4601.12353515625,963.3699340820312
5997.772601936,4591.7431640625,960.4395751953125
5997.773853571,4591.7431640625,961.90478515625
5997.806362035,4591.7431640625,962.6373901367188
5997.8075393,4582.40087890625,963.3699340820312
5997.839998884,4591.7431640625,963.3699340820312
5997.844974317,4591.7431640625,963.3699340820312
5997.877411739,4591.7431640625,963.3699340820312
5997.910169366,4591.7431640625,964.1025390625
5997.91144845,4591.7431640625,963.3699340820312
5997.94385671,4591.7431640625,963.3699340820312
5997.948903125,4582.40087890625,963.3699340820312
5997.981168095,4591.7431640625,964.1025390625
5997.982293769,4582.40087890625,964.1025390625
5998.015154858,4582.40087890625,964.1025390625
5998.047668416,4582.40087890625,964.1025390625
5998.048758797,4582.40087890625,964.8351440429688
5998.081372598,4582.40087890625,964.8351440429688
5998.113830835,4582.40087890625,964.8351440429688
5998.114817012,4582.40087890625,964.8351440429688
5998.147715708,4573.0966796875,964.8351440429688
5998.148596108,4582.40087890625,967.7655639648438
5998.197647767,4582.40087890625,966.3003540039062
5998.198692558,4582.40087890625,965.5677490234375
5998.251129565,4582.40087890625,964.8351440429688
5998.252786895,4582.40087890625,964.8351440429688
5998.253525345,4582.40087890625,964.8351440429688
5998.286254379,4582.40087890625,964.8351440429688
5998.287459415,4582.40087890625,964.8351440429688
5998.319992185,4582.40087890625,964.8351440429688
5998.325228008,4582.40087890625,964.8351440429688
5998.357409467,4582.40087890625,964.8351440429688
5998.393800875,4582.40087890625,964.8351440429688
5998.394798133,4573.0966796875,964.8351440429688
5998.467430341,4582.40087890625,967.7655639648438
5998.468712436,4582.40087890625,966.3003540039062
5998.469876418,4582.40087890625,965.5677490234375
5998.496346673,4582.40087890625,965.5677490234375
5998.497371516,4582.40087890625,964.8351440429688
5998.530153641,4573.0966796875,964.8351440429688
5998.531362277,4573.0966796875,968.4981689453125
5998.563794931,4573.0966796875,969.2307739257812
5998.56986652,4573.0966796875,969.96337890625
5998.602498513,4573.0966796875,969.96337890625
5998.603538701,4573.0966796875,970.6959838867188
5998.636248261,4573.0966796875,970.6959838867188
5998.668776302,4573.0966796875,969.96337890625
5998.669802243,4573.0966796875,971.4285888671875
5998.702451352,4563.82958984375,970.6959838867188
5998.707399603,4573.0966796875,968.4981689453125
5998.740234031,4573.0966796875,969.96337890625
5998.798690362,4563.82958984375,969.96337890625
5998.799974118,4563.82958984375,967.7655639648438
5998.801152537,4563.82958984375,966.3003540039062
5998.807835143,4563.82958984375,966.3003540039062
5998.840072724,4573.0966796875,966.3003540039062
5998.847637332,4563.82958984375,969.2307739257812
5998.891363873,4563.82958984375,967.7655639648438
5998.892540594,4554.6005859375,966.3003540039062
5998.925259372,4554.6005859375,969.2307739257812
5998.926233537,4554.6005859375,970.6959838867188
5998.959046308,4554.6005859375,971.4285888671875
5998.966336918,4554.6005859375,972.1611938476562
5998.998821688,4563.82958984375,972.1611938476562
5999.031612545,4554.6005859375,969.2307739257812
5999.032490314,4554.6005859375,970.6959838867188
5999.095278887,4545.40869140625,971.4285888671875
5999.096203211,4554.6005859375,972.893798828125
5999.097526747,4554.6005859375,972.1611938476562
5999.130034946,4545.40869140625,972.1611938476562
5999.131210345,4545.40869140625,973.6264038085938
5999.163822928,4545.40869140625,973.6264038085938
5999.166289754,4545.40869140625,973.6264038085938
5999.198843441,4545.40869140625,973.6264038085938
5999.231655392,4545.40869140625,973.6264038085938
5999.232524179,4545.40869140625,973.6264038085938
5999.265014075,4536.25390625,973.6264038085938
5999.26627894,4545.40869140625,976.5567626953125
5999.298801494,4536.25390625,975.091552734375
5999.331478046,4536.25390625,977.2893676757812
5999.333502617,4545.40869140625,978.7545776367188
5999.406516114,4536.25390625,975.8241577148438
5999.407523477,4536.25390625,978.02197265625
5999.410028268,4536.25390625,978.7545776367188
5999.41114605,4536.25390625,979.4871826171875
5999.443790629,4536.25390625,979.4871826171875
5999.444924149,4536.25390625,980.2197875976562
5999.477746604,4527.1357421875,979.4871826171875
5999.531301982,4527.1357421875,977.2893676757812
5999.532474812,4536.25390625,975.8241577148438
5999.533695623,4527.1357421875,978.02197265625
5999.56631819,4527.1357421875,976.5567626953125
5999.567579754,4527.1357421875,975.8241577148438
5999.600006145,4527.1357421875,975.8241577148438
5999.601321979,4527.1357421875,975.8241577148438
5999.63382628,4527.1357421875,975.8241577148438
5999.697879312,4518.05419921875,975.8241577148438
5999.698774738,4527.1357421875,978.02197265625
5999.699981993,4518.05419921875,977.2893676757812
5999.732534398,4527.1357421875,979.4871826171875
5999.733706761,4527.1357421875,977.2893676757812
5999.766512044,4527.1357421875,976.5567626953125
5999.767569949,4518.05419921875,975.8241577148438
5999.800067514,4518.05419921875,978.7545776367188
5999.8076295,4518.05419921875,980.2197875976562
5999.840037528,4527.1357421875,981.6849975585938
5999.872628722,4527.1357421875,978.02197265625
5999.873793725,4527.1357421875,976.5567626953125
5999.906387136,4518.05419921875,976.5567626953125
5999.907843991,4527.1357421875,978.7545776367188
5999.940085045,4518.05419921875,977.2893676757812
6000.007494435,4518.05419921875,979.4871826171875
6000.008692979,4518.05419921875,980.2197875976562
6000.009963123,4518.05419921875,980.952392578125
6000.015141534,4518.05419921875,981.6849975585938
6000.04752198,4518.05419921875,981.6849975585938
6000.048815514,4518.05419921875,981.6849975585938
6000.081268655,4518.05419921875,982.4176025390625
6000.113804945,4518.05419921875,981.6849975585938
6000.114930525,4518.05419921875,981.6849975585938
6000.171519954,4509.0087890625,981.6849975585938
6000.172506307,4518.05419921875,982.4176025390625
6000.173749965,4509.0087890625,981.6849975585938
6000.206402287,4509.0087890625,982.4176025390625
6000.207455495,4509.0087890625,982.4176025390625
6000.243282216,4518.05419921875,982.4176025390625
6000.246891151,4518.05419921875,981.6849975585938
6000.291264731,4518.05419921875,981.6849975585938
6000.292452535,4518.05419921875,981.6849975585938
6000.325041108,4518.05419921875,981.6849975585938
6000.326227693,4518.05419921875,981.6849975585938
6000.358916667,4518.05419921875,981.6849975585938
6000.359973507,4518.05419921875,982.4176025390625
6000.392786112,4518.05419921875,981.6849975585938
6000.425199156,4518.05419921875,982.4176025390625
6000.426144989,4518.05419921875,981.6849975585938
6000.459003503,4509.0087890625,981.6849975585938
6000.491431684,4509.0087890625,982.4176025390625
6000.492408778,4518.05419921875,982.4176025390625
6000.525295968,4518.05419921875,982.4176025390625
6000.526262605,4518.05419921875,981.6849975585938
6000.596627048,4518.05419921875,981.6849975585938
6000.597567627,4518.05419921875,981.6849975585938
6000.599099527,4527.1357421875,981.6849975585938
6000.6313177,4518.05419921875,978.7545776367188
6000.632443194,4518.05419921875,980.2197875976562
6000.665252816,4518.05419921875,980.952392578125
6000.666327789,4518.05419921875,981.6849975585938
6000.698808402,4518.05419921875,981.6849975585938
6000.699953845,4527.1357421875,981.6849975585938
6000.732579512,4518.05419921875,978.7545776367188
6000.765124943,4527.1357421875,979.4871826171875
6000.766207498,4518.05419921875,977.2893676757812
6000.811303702,4527.1357421875,979.4871826171875
6000.812605799,4527.1357421875,977.2893676757812
6000.845245472,4518.05419921875,976.5567626953125
6000.846258384,4527.1357421875,979.4871826171875
6000.892748738,4527.1357421875,977.2893676757812
6000.893805559,4518.05419921875,976.5567626953125
6000.926518054,4518.05419921875,978.7545776367188
6000.927484098,4518.05419921875,980.952392578125
6000.960076868,4527.1357421875,980.952392578125
6000.992574008,4518.05419921875,978.7545776367188
6000.99367196,4527.1357421875,980.2197875976562
6001.026340958,4518.05419921875,977.2893676757812
6001.027451723,4527.1357421875,980.2197875976562
6001.0602672,4527.1357421875,977.2893676757812
6001.06527685,4518.05419921875,976.5567626953125
6001.097615254,4527.1357421875,979.4871826171875
6001.130025707,4518.05419921875,977.2893676757812
6001.131214422,4518.05419921875,980.2197875976562
6001.203945668,4518.05419921875,980.2197875976562
6001.205379723,4518.05419921875,980.952392578125
6001.206227844,4527.1357421875,980.952392578125
6001.212606408,4527.1357421875,978.02197265625
6001.245273141,4518.05419921875,976.5567626953125
6001.246408719,4527.1357421875,979.4871826171875
6001.278881883,4527.1357421875,977.2893676757812
6001.311422839,4518.05419921875,976.5567626953125
6001.312410607,4527.1357421875,978.7545776367188
6001.345061757,4518.05419921875,977.2893676757812
6001.377617816,4527.1357421875,979.4871826171875
6001.378764869,4527.1357421875,977.2893676757812
6001.41151884,4527.1357421875,976.5567626953125
6001.412500735,4527.1357421875,975.8241577148438
6001.451631528,4518.05419921875,975.8241577148438
6001.452874178,4518.05419921875,978.7545776367188
6001.493817337,4518.05419921875,980.2197875976562
6001.495023832,4527.1357421875,980.952392578125
6001.527662446,4527.1357421875,978.02197265625
6001.528712462,4527.1357421875,976.5567626953125
6001.561365897,4527.1357421875,975.8241577148438
6001.562573425,4527.1357421875,975.8241577148438
6001.595053015,4527.1357421875,975.8241577148438
6001.627574065,4518.05419921875,975.091552734375
6001.628827003,4527.1357421875,978.7545776367188
6001.661582061,4527.1357421875,976.5567626953125
6001.662497273,4527.1357421875,976.5567626953125
6001.69513103,4527.1357421875,975.8241577148438
6001.727688699,4527.1357421875,975.091552734375
6001.728829849,4527.1357421875,975.8241577148438
6001.790162491,4536.25390625,975.8241577148438
6001.791213259,4527.1357421875,977.2893676757812
6001.792585022,4527.1357421875,976.5567626953125
6001.826308909,4518.05419921875,975.8241577148438
6001.827415752,4527.1357421875,978.7545776367188
6001.860008325,4518.05419921875,977.2893676757812
6001.861230029,4518.05419921875,980.2197875976562
6001.893898475,4527.1357421875,980.952392578125
6001.926301401,4518.05419921875,978.02197265625
6001.927682635,4518.05419921875,979.4871826171875
6001.960035474,4527.1357421875,980.952392578125
6001.961253102,4518.05419921875,978.02197265625
6001.9938235,4518.05419921875,980.2197875976562
6002.026274119,4518.05419921875,980.2197875976562
6002.098807425,4518.05419921875,980.952392578125
6002.099952851,4509.0087890625,981.6849975585938
6002.101331475,4518.05419921875,982.4176025390625
6002.125220083,4518.05419921875,981.6849975585938
6002.126369524,4509.0087890625,981.6849975585938
6002.127440584,4509.0087890625,982.4176025390625
6002.160043899,4509.0087890625,982.4176025390625
6002.161634847,4509.0087890625,983.1502075195312
6002.193811586,4509.0087890625,983.1502075195312
6002.226433022,4500.0,983.1502075195312
6002.227442405,4509.0087890625,986.08056640625
6002.260058677,4500.0,984.6153564453125
6002.267740177,4500.0,986.8131713867188
6002.300045642,4500.0,988.2783813476562
6002.301308716,4500.0,988.2783813476562
6002.334146752,4500.0,989.010986328125
6002.392559846,4491.02685546875,989.010986328125
6002.3936539,4491.02685546875,986.8131713867188
6002.395257091,4491.02685546875,985.3479614257812
6002.427532329,4491.02685546875,984.6153564453125
6002.428690817,4491.02685546875,984.6153564453125
6002.461623867,4491.02685546875,984.6153564453125
6002.462486306,4491.02685546875,984.6153564453125
6002.4952195,4491.02685546875,983.8828125
6002.527672848,4491.02685546875,983.8828125
6002.528711169,4482.08935546875,984.6153564453125
6002.56166991,4482.08935546875,987.5457763671875
6002.566586395,4482.08935546875,989.010986328125
6002.598820297,4482.08935546875,989.7435913085938
6002.59994182,4473.1875,989.7435913085938
6002.6326703,4482.08935546875,990.4761962890625
6002.696428019,4482.08935546875,990.4761962890625
6002.697496521,4482.08935546875,990.4761962890625
6002.701609775,4482.08935546875,990.4761962890625
6002.705056809,4482.08935546875,990.4761962890625
6002.732518873,4482.08935546875,990.4761962890625
6002.765234822,4473.1875,990.4761962890625
6002.766353224,4482.08935546875,990.4761962890625
6002.79900851,4473.1875,989.7435913085938
6002.800030809,4473.1875,991.2088012695312
6002.832766543,4473.1875,991.2088012695312
6002.865104723,4473.1875,991.2088012695312
6002.866538734,4473.1875,991.2088012695312
6002.899012375,4473.1875,991.2088012695312
6002.931614909,4473.1875,991.94140625
6002.9325375,4473.1875,991.2088012695312
6002.991385469,4464.3212890625,991.2088012695312
6002.992448781,4473.1875,994.8717651367188
6002.993768143,4473.1875,993.4066162109375
6003.026446616,4464.3212890625,991.94140625
6003.027451978,4464.3212890625,995.6043701171875
6003.060240091,4464.3212890625,996.3369750976562
6003.092633784,4473.1875,997.8021850585938
6003.093786344,4464.3212890625,994.1392211914062
6003.126620961,4464.3212890625,995.6043701171875
6003.130122798,4473.1875,997.069580078125
6003.160244097,4464.3212890625,994.1392211914062
6003.161413173,4464.3212890625,996.3369750976562
6003.19396391,4473.1875,997.069580078125
6003.226633491,4464.3212890625,994.1392211914062
6003.227525009,4464.3212890625,996.3369750976562
6003.290368597,4473.1875,997.069580078125
6003.291410591,4464.3212890625,994.1392211914062
6003.292847027,4473.1875,996.3369750976562
6003.325067885,4464.3212890625,993.4066162109375
6003.326397654,4464.3212890625,995.6043701171875
6003.37137369,4473.1875,997.069580078125
6003.372404568,4473.1875,994.1392211914062
6003.405362624,4464.3212890625,992.6740112304688
6003.406440455,4473.1875,995.6043701171875
6003.43893432,4473.1875,993.4066162109375
6003.439990043,4464.3212890625,992.6740112304688
6003.472782823,4473.1875,994.8717651367188
6003.505385688,4473.1875,993.4066162109375
6003.50633523,4464.3212890625,992.6740112304688
6003.539268009,4464.3212890625,994.8717651367188
6003.592779543,4473.1875,996.3369750976562
6003.594139389,4473.1875,993.4066162109375
6003.595322707,4473.1875,992.6740112304688
6003.627740643,4464.3212890625,991.94140625
6003.628744944,4464.3212890625,995.6043701171875
6003.661652678,4464.3212890625,996.3369750976562
6003.66294938,4473.1875,997.069580078125
6003.695241039,4473.1875,994.1392211914062
6003.727687293,4473.1875,992.6740112304688
6003.728771669,4473.1875,991.94140625
6003.761621731,4473.1875,991.2088012695312
6003.762623285,4473.1875,991.94140625
6003.795346063,4482.08935546875,991.94140625
6003.82804677,4473.1875,990.4761962890625
6003.829185496,4473.1875,991.2088012695312
6003.892697511,4473.1875,991.94140625
6003.893810207,4473.1875,991.2088012695312
6003.895014377,4473.1875,991.94140625
6003.927638399,4473.1875,991.94140625
6003.928808015,4473.1875,991.94140625
6003.961605829,4473.1875,991.94140625
6003.962614719,4473.1875,991.2088012695312
6004.011600152,4473.1875,991.94140625
6004.012663282,4473.1875,991.94140625
6004.038972464,4473.1875,991.2088012695312
6004.04012989,4482.08935546875,991.2088012695312
6004.074128565,4482.08935546875,990.4761962890625
6004.106423213,4473.1875,990.4761962890625
6004.107605561,4482.08935546875,991.2088012695312
6004.140351511,4473.1875,991.2088012695312
6004.145369444,4482.08935546875,991.2088012695312
6004.193902703,4473.1875,990.4761962890625
6004.195104634,4473.1875,991.2088012695312
6004.202684589,4473.1875,990.4761962890625
6004.2353226,4482.08935546875,990.4761962890625
6004.242784351,4473.1875,990.4761962890625
6004.276414337,4482.08935546875,991.2088012695312
6004.284050551,4473.1875,990.4761962890625
6004.316425411,4482.08935546875,991.2088012695312
6004.349123632,4482.08935546875,990.4761962890625
6004.350128048,4482.08935546875,990.4761962890625
6004.382882992,4482.08935546875,990.4761962890625
6004.383907292,4482.08935546875,990.4761962890625
6004.416576244,4482.08935546875,990.4761962890625
6004.449107254,4482.08935546875,990.4761962890625
6004.450044176,4482.08935546875,990.4761962890625
6004.507884499,4482.08935546875,990.4761962890625
6004.509205191,4482.08935546875,989.7435913085938
6004.510453932,4482.08935546875,990.4761962890625
6004.542691394,4482.08935546875,990.4761962890625
6004.543855449,4491.02685546875,990.4761962890625
6004.576711233,4491.02685546875,987.5457763671875
6004.609126643,4491.02685546875,985.3479614257812
6004.610112643,4482.08935546875,984.6153564453125
6004.651459171,4491.02685546875,987.5457763671875
6004.652597844,4482.08935546875,986.08056640625
6004.685382594,4482.08935546875,988.2783813476562
6004.686357431,4482.08935546875,989.010986328125
6004.718894024,4491.02685546875,989.7435913085938
6004.720038921,4491.02685546875,986.8131713867188
6004.752715002,4500.0,985.3479614257812
6004.795185741,4509.0087890625,986.8131713867188
6004.796684497,4536.25390625,984.6153564453125
6004.829103162,4536.25390625,982.4176025390625
6004.830141069,4527.1357421875,981.6849975585938
6004.86284411,4518.05419921875,978.02197265625
6004.864227173,4527.1357421875,980.2197875976562
6004.896761172,4527.1357421875,977.2893676757812
6004.928938643,4527.1357421875,976.5567626953125
6004.930087417,4536.25390625,975.8241577148438
6004.962737654,4563.82958984375,977.2893676757812
6004.963845113,4620.0,972.1611938476562
6004.996442743,4706.896484375,963.3699340820312
6004.99761136,4966.37255859375,949.4505615234375
6005.030630748,5243.88818359375,1063.7362060546875
6005.101495668,6030.12060546875,1077.6556396484375
6005.102891863,6898.162109375,1003.6630249023438
6005.103985317,7545.22607421875,1069.5970458984375
6005.105118394,7726.4150390625,1055.6776123046875
6005.137683784,7570.58837890625,1035.8974609375
6005.170371239,7445.45458984375,1035.8974609375
6005.171398943,7396.5517578125,1046.886474609375
6005.204156173,7230.3369140625,1056.4102783203125
6005.205440223,7138.6689453125,1067.3992919921875
6005.237860896,7071.4287109375,1079.853515625
6005.242635691,7005.443359375,1091.5750732421875
6005.291465731,6835.3564453125,1100.3663330078125
6005.292806182,6556.7685546875,1118.6812744140625
6005.325320215,5738.216796875,990.4761962890625
6005.326576783,5032.9609375,992.6740112304688
6005.38910318,5089.83056640625,1075.4578857421875
6005.390087501,5101.35888671875,1104.761962890625
6005.391393676,5112.93994140625,1116.4835205078125
6005.423934163,5195.501953125,1122.3443603515625
6005.431373574,5256.1259765625,1113.5531005859375
6005.464162209,5243.88818359375,1104.029296875
6005.465188296,5219.5830078125,1098.16845703125
6005.49770879,5195.501953125,1100.3663330078125
6005.49916724,5183.54443359375,1102.5640869140625
6005.531630002,5171.6416015625,1107.6922607421875
6005.563955705,5183.54443359375,1110.6226806640625
6005.56506262,5195.501953125,1111.3553466796875
6005.597774561,5171.6416015625,1107.6922607421875
6005.605221496,5207.5146484375,1110.6226806640625
6005.637664651,5231.70751953125,1109.89013671875
6005.638793819,5256.1259765625,1104.761962890625
6005.698012335,5268.4208984375,1100.3663330078125
6005.698875269,5280.77392578125,1093.77294921875
6005.700210239,5280.77392578125,1090.842529296875
6005.732649655,5280.77392578125,1089.3773193359375
6005.765195546,5256.1259765625,1087.912109375
6005.766405152,5243.88818359375,1092.3077392578125
6005.799047658,5231.70751953125,1093.040283203125
6005.800379402,5207.5146484375,1096.7032470703125
6005.832869157,5171.6416015625,1102.5640869140625
6005.865359495,5124.5732421875,1108.4249267578125
6005.866323961,5124.5732421875,1115.018310546875
6005.899134533,5124.5732421875,1118.6812744140625
6005.931440713,5078.35400390625,1120.879150390625
6005.932620531,5032.9609375,1128.937744140625
6005.993974601,5032.9609375,1139.194091796875
6005.995339773,5032.9609375,1144.3223876953125
6005.996332825,5010.5673828125,1146.5201416015625
6006.0026326,4988.3720703125,1150.18310546875
6006.035410431,4988.3720703125,1156.776611328125
6006.067885377,4999.44482421875,1159.7069091796875
6006.069221112,4988.3720703125,1159.7069091796875
6006.101413155,5044.23291015625,1161.172119140625
6006.102541162,5066.92919921875,1153.84619140625
6006.135235219,5066.92919921875,1147.2528076171875
6006.14008905,5066.92919921875,1145.054931640625
6006.172789938,5066.92919921875,1143.5897216796875
6006.205433306,5066.92919921875,1142.857177734375
6006.206695113,5066.92919921875,1142.857177734375
6006.239121895,5032.9609375,1142.12451171875
6006.243876255,4966.37255859375,1145.78759765625
6006.297704436,4944.56640625,1156.0439453125
6006.298808595,4944.56640625,1167.032958984375
6006.30149701,5044.23291015625,1170.6959228515625
6006.332979005,5010.5673828125,1158.24169921875
6006.365421156,4999.44482421875,1155.3114013671875
6006.366332071,5010.5673828125,1157.5091552734375
6006.398968602,4999.44482421875,1155.3114013671875
6006.403880421,5021.7392578125,1158.24169921875
6006.436557537,5032.9609375,1156.776611328125
6006.437550955,5010.5673828125,1153.113525390625
6006.470374705,5021.7392578125,1153.113525390625
6006.502903147,5010.5673828125,1154.5787353515625
6006.503954712,4999.44482421875,1153.84619140625
6006.536529863,5010.5673828125,1156.776611328125
6006.608933397,5010.5673828125,1154.5787353515625
6006.610014687,4988.3720703125,1154.5787353515625
6006.611345315,4999.44482421875,1158.24169921875
6006.612536388,4999.44482421875,1158.974365234375
6006.645179835,4988.3720703125,1159.7069091796875
6006.646311058,4988.3720703125,1160.4395751953125
6006.679169739,4988.3720703125,1161.172119140625
6006.68013639,4988.3720703125,1161.90478515625
6006.712934934,4988.3720703125,1161.90478515625
6006.746833037,4988.3720703125,1161.90478515625
6006.747627395,4977.34814453125,1161.90478515625
6006.780209925,4977.34814453125,1165.5677490234375
6006.781313503,4966.37255859375,1167.032958984375
6006.813968228,4977.34814453125,1167.032958984375
6006.846616986,4977.34814453125,1167.765625
6006.848303244,4966.37255859375,1168.4981689453125
6006.889148912,4944.56640625,1167.032958984375
6006.890134806,4966.37255859375,1171.4285888671875
6006.922744099,4955.4453125,1169.230712890625
6006.923841734,4955.4453125,1171.4285888671875
6006.956615503,4955.4453125,1172.1611328125
6006.957608191,4922.95068359375,1172.893798828125
6006.990382112,4933.73486328125,1176.5567626953125
6007.02288697,4922.95068359375,1178.754638671875
6007.024196183,4933.73486328125,1179.4871826171875
6007.056611318,4933.73486328125,1180.952392578125
6007.089140177,4933.73486328125,1181.6849365234375
6007.090444432,4922.95068359375,1181.6849365234375
6007.122768983,4922.95068359375,1180.2197265625
6007.123845213,4922.95068359375,1180.2197265625
6007.195336387,4880.28173828125,1180.2197265625
6007.196358565,4890.87939453125,1186.813232421875
6007.197507162,4869.7294921875,1191.208740234375
6007.221504359,4869.7294921875,1196.3370361328125
6007.222562366,4869.7294921875,1197.80224609375
6007.255255174,4880.28173828125,1199.2674560546875
6007.287873153,4880.28173828125,1195.6043701171875
6007.288864202,4869.7294921875,1194.13916015625
6007.322222339,4786.9287109375,1197.80224609375
6007.322545418,4776.7763671875,1052.0146484375
6007.355391814,4797.12451171875,984.6153564453125
6007.387793178,4817.64697265625,948.7179565429688
6007.389141848,4797.12451171875,1089.3773193359375
6007.421547049,4859.22314453125,997.069580078125
6007.422667457,4859.22314453125,1106.22705078125
6007.455397089,4869.7294921875,1156.0439453125
6007.490553598,4859.22314453125,1178.754638671875
6007.491439208,4869.7294921875,1190.4761962890625
6007.524258306,4848.76220703125,1194.871826171875
6007.525164969,4859.22314453125,1202.930419921875
6007.557851792,4838.345703125,1202.19775390625
6007.558883487,4746.5751953125,1205.128173828125
6007.591472452,4736.59326171875,1059.3406982421875
6007.624133481,4687.3046875,991.94140625
6007.625378228,4658.22119140625,967.7655639648438
6007.657836649,4658.22119140625,956.0439453125
6007.662968487,4697.080078125,951.6483764648438
6007.695172165,4746.5751953125,944.3223266601562
6007.727735106,4706.896484375,936.2637329101562
6007.72876896,4648.60693359375,936.996337890625
6007.80036142,4582.40087890625,944.3223266601562
6007.801309611,4582.40087890625,955.3113403320312
6007.802607435,4563.82958984375,960.4395751953125
6007.80376986,4518.05419921875,963.3699340820312
6007.851679068,4473.1875,972.893798828125
6007.852575904,4446.69287109375,983.1502075195312
6007.885377856,4429.20361328125,991.94140625
6007.886338969,4420.51025390625,1000.7326049804688
6007.919157759,4411.85107421875,1001.4652099609375
6007.920121396,4420.51025390625,1005.8607788085938
6007.952708689,4420.51025390625,1004.3956298828125
6007.985245296,4420.51025390625,1003.6630249023438
6007.986583686,4429.20361328125,1003.6630249023438
6008.019135183,4420.51025390625,1005.8607788085938
6008.026481961,4420.51025390625,1004.3956298828125
6008.090369806,4455.48974609375,1003.6630249023438
6008.091791633,4601.12353515625,998.5347900390625
6008.092612944,4601.12353515625,976.5567626953125
6008.110379853,4536.25390625,967.032958984375
6008.142802197,4545.40869140625,973.6264038085938
6008.144422511,4610.54248046875,973.6264038085938
6008.176555538,4677.5703125,967.7655639648438
6008.209064542,4677.5703125,952.3809814453125
6008.210151623,4697.080078125,946.5201416015625
6008.243024488,4677.5703125,942.12451171875
6008.243859193,4648.60693359375,941.3919677734375
6008.276638359,4620.0,947.2527465820312
6008.281578576,4591.7431640625,952.3809814453125
6008.314082418,4620.0,957.5091552734375
6008.346749353,4677.5703125,957.5091552734375
6008.347656089,4756.599609375,947.9853515625
6008.398015481,4776.7763671875,934.7985229492188
6008.399196355,4797.12451171875,928.2051391601562
6008.400304934,4756.599609375,921.6116943359375
6008.432786606,4620.0,922.3442993164062
6008.465507653,4582.40087890625,939.9267578125
6008.466691633,4582.40087890625,952.3809814453125
6008.492888526,4582.40087890625,958.974365234375
6008.525353425,4582.40087890625,961.90478515625
6008.526667738,4591.7431640625,963.3699340820312
6008.55926056,4582.40087890625,963.3699340820312
6008.560615387,4601.12353515625,963.3699340820312
6008.592837243,4610.54248046875,960.4395751953125
6008.625530916,4601.12353515625,961.1721801757812
6008.626902657,4601.12353515625,958.974365234375
6008.689209208,4582.40087890625,958.2417602539062
6008.690261696,4601.12353515625,961.90478515625
6008.691505438,4639.03173828125,958.974365234375
6008.724185203,4658.22119140625,953.8461303710938
6008.725246426,4648.60693359375,950.1831665039062
6008.758141497,4658.22119140625,950.915771484375
6008.764135411,4658.22119140625,947.9853515625
6008.796561061,4648.60693359375,947.2527465820312
6008.8041524,4648.60693359375,950.1831665039062
6008.836553948,4639.03173828125,951.6483764648438
6008.83767323,4629.49658203125,950.1831665039062
6008.870645151,4629.49658203125,952.3809814453125
6008.903000449,4620.0,953.8461303710938
6008.904028197,4601.12353515625,955.3113403320312
6008.93674851,4591.7431640625,956.7765502929688
6008.944022625,4601.12353515625,960.4395751953125
6008.99927502,4601.12353515625,958.2417602539062
6009.000279734,4601.12353515625,958.2417602539062
6009.001421922,4601.12353515625,958.2417602539062
6009.034070567,4610.54248046875,957.5091552734375
6009.066763641,4601.12353515625,960.4395751953125
6009.068061696,4601.12353515625,958.974365234375
6009.100305333,4601.12353515625,958.2417602539062
6009.131500791,4591.7431640625,958.2417602539062
6009.132664825,4591.7431640625,960.4395751953125
6009.16525505,4591.7431640625,961.90478515625
6009.166495996,4582.40087890625,963.3699340820312
6009.200318803,4573.0966796875,964.1025390625
6009.201485865,4573.0966796875,967.7655639648438
6009.234087139,4573.0966796875,969.2307739257812
6009.241519144,4573.0966796875,969.96337890625
6009.291609938,4563.82958984375,969.96337890625
6009.29274806,4573.0966796875,967.7655639648438
6009.325278146,4563.82958984375,969.2307739257812
6009.326450429,4563.82958984375,967.7655639648438
6009.359032981,4554.6005859375,967.032958984375
6009.360272395,4545.40869140625,969.96337890625
6009.392782119,4545.40869140625,971.4285888671875
6009.426212128,4536.25390625,972.893798828125
6009.426473164,4527.1357421875,976.5567626953125
6009.459024629,4527.1357421875,975.091552734375
6009.464014891,4527.1357421875,975.8241577148438
6009.496548799,4509.0087890625,975.8241577148438
6009.497653618,4509.0087890625,978.7545776367188
6009.530338554,4518.05419921875,981.6849975585938
6009.591704458,4500.0,981.6849975585938
6009.592699482,4500.0,986.08056640625
6009.593982987,4500.0,987.5457763671875
6009.626547175,4500.0,988.2783813476562
6009.627766933,4500.0,989.010986328125
6009.660488769,4491.02685546875,989.010986328125
6009.661749807,4500.0,986.8131713867188
6009.694243973,4500.0,987.5457763671875
6009.701749654,4500.0,988.2783813476562
6009.734067781,4491.02685546875,989.010986328125
6009.771539551,4491.02685546875,986.8131713867188
6009.772705227,4482.08935546875,986.08056640625
6009.805499347,4482.08935546875,987.5457763671875
6009.80673238,4482.08935546875,989.010986328125
6009.8390351,4473.1875,989.010986328125
6009.840199052,4473.1875,990.4761962890625
6009.89153299,4473.1875,990.4761962890625
6009.892732569,4473.1875,991.2088012695312
6009.925621056,4464.3212890625,991.94140625
6009.926496325,4473.1875,994.8717651367188
6009.959241505,4464.3212890625,992.6740112304688
6009.960214873,4473.1875,995.6043701171875
6009.992798754,4473.1875,993.4066162109375
6009.999124438,4464.3212890625,992.6740112304688
6010.031570242,4464.3212890625,995.6043701171875
6010.064241116,4464.3212890625,996.3369750976562
6010.065538926,4464.3212890625,997.069580078125
6010.097861098,4464.3212890625,997.069580078125
6010.130580014,4455.48974609375,997.8021850585938
6010.131472463,4446.69287109375,995.6043701171875
6010.196767584,4455.48974609375,997.8021850585938
6010.198078008,4455.48974609375,995.6043701171875
6010.199320008,4446.69287109375,994.8717651367188
6010.205340229,4455.48974609375,997.069580078125
6010.237795033,4446.69287109375,994.8717651367188
6010.239004005,4446.69287109375,997.8021850585938
6010.271637224,4446.69287109375,998.5347900390625
6010.276509692,4446.69287109375,1000.0
6010.309118352,4437.93115234375,1000.0
6010.341621058,4437.93115234375,1000.0
6010.342764108,4437.93115234375,1000.7326049804688
6010.375453372,4437.93115234375,1000.7326049804688
6010.411652691,4437.93115234375,1000.7326049804688
6010.412706263,4437.93115234375,1000.7326049804688
6010.445501304,4437.93115234375,1000.7326049804688
6010.446471575,4437.93115234375,1001.4652099609375
6010.495830097,4437.93115234375,1001.4652099609375
6010.496444129,4437.93115234375,1001.4652099609375
6010.49771277,4437.93115234375,1001.4652099609375
6010.530640481,4437.93115234375,1001.4652099609375
6010.562944166,4437.93115234375,1000.7326049804688
6010.56394168,4437.93115234375,1000.7326049804688
6010.596716852,4437.93115234375,1001.4652099609375
6010.59773995,4437.93115234375,1001.4652099609375
6010.630507363,4429.20361328125,1000.7326049804688
6010.663003228,4437.93115234375,1004.3956298828125
6010.664253749,4437.93115234375,1002.1978149414062
6010.696769582,4429.20361328125,1002.1978149414062
6010.702778888,4437.93115234375,1004.3956298828125
6010.735254045,4429.20361328125,1002.930419921875
6010.796774589,4429.20361328125,1005.1282348632812
6010.798066318,4429.20361328125,1005.8607788085938
6010.799008057,4429.20361328125,1006.5933837890625
6010.800554761,4429.20361328125,1007.3259887695312
6010.832809437,4437.93115234375,1007.3259887695312
6010.865398926,4429.20361328125,1004.3956298828125
6010.866709119,4429.20361328125,1005.8607788085938
6010.89906561,4429.20361328125,1006.5933837890625
6010.90538109,4429.20361328125,1007.3259887695312
6010.937820154,4429.20361328125,1007.3259887695312
6010.938939335,4429.20361328125,1007.3259887695312
6010.971516508,4429.20361328125,1008.05859375
6011.004005583,4429.20361328125,1007.3259887695312
6011.005177466,4420.51025390625,1007.3259887695312
6011.05152562,4429.20361328125,1005.1282348632812
6011.052853135,4420.51025390625,1006.5933837890625
6011.09159849,4429.20361328125,1004.3956298828125
6011.092685856,4429.20361328125,1006.5933837890625
6011.099538124,4429.20361328125,1006.5933837890625
6011.131760108,4429.20361328125,1007.3259887695312
6011.164249564,4420.51025390625,1007.3259887695312
6011.165604241,4429.20361328125,1005.1282348632812
6011.198104689,4420.51025390625,1006.5933837890625
6011.199048019,4429.20361328125,1004.3956298828125
6011.231687137,4429.20361328125,1006.5933837890625
6011.236571578,4429.20361328125,1006.5933837890625
6011.269051716,4429.20361328125,1007.3259887695312
6011.301703189,4420.51025390625,1006.5933837890625
6011.302744534,4429.20361328125,1005.1282348632812
6011.335401524,4429.20361328125,1006.5933837890625
6011.340337744,4429.20361328125,1006.5933837890625
6011.391848012,4420.51025390625,1007.3259887695312
6011.393060547,4420.51025390625,1005.1282348632812
6011.39400687,4429.20361328125,1003.6630249023438
6011.426851226,4429.20361328125,1005.8607788085938
6011.459251481,4403.2255859375,1006.5933837890625
6011.466762248,4420.51025390625,1008.7911987304688
6011.499062083,4411.85107421875,1005.8607788085938
6011.500177545,4420.51025390625,1008.05859375
6011.532745814,4420.51025390625,1005.1282348632812
6011.565486722,4420.51025390625,1004.3956298828125
6011.566411132,4420.51025390625,1003.6630249023438
6011.59910039,4420.51025390625,1002.930419921875
6011.600245212,4420.51025390625,1002.930419921875
6011.632999956,4420.51025390625,1002.930419921875
6011.705414978,4420.51025390625,1002.930419921875
6011.706468163,4420.51025390625,1002.930419921875
6011.707718641,4420.51025390625,1002.930419921875
6011.724087199,4411.85107421875,1002.930419921875
6011.725454575,4420.51025390625,1005.8607788085938
6011.757980262,4411.85107421875,1004.3956298828125
6011.758991867,4411.85107421875,1007.3259887695312
6011.791775882,4411.85107421875,1008.05859375
6011.824029825,4411.85107421875,1008.7911987304688
6011.830519292,4411.85107421875,1009.5238037109375
6011.862786459,4403.2255859375,1008.7911987304688
6011.863970314,4411.85107421875,1010.2564086914062
6011.896749285,4403.2255859375,1009.5238037109375
6011.898152164,4411.85107421875,1010.2564086914062
6011.930564743,4403.2255859375,1009.5238037109375
6011.997757992,4411.85107421875,1010.2564086914062
6011.998948607,4411.85107421875,1009.5238037109375
6012.000311575,4411.85107421875,1009.5238037109375
6012.001441454,4403.2255859375,1009.5238037109375
6012.036595636,4403.2255859375,1010.2564086914062
6012.036704705,4411.85107421875,1010.989013671875
6012.069091821,4403.2255859375,1010.2564086914062
6012.101635267,4403.2255859375,1010.2564086914062
6012.102695261,4403.2255859375,1010.989013671875
6012.131787769,4411.85107421875,1010.989013671875
6012.165491071,4403.2255859375,1010.2564086914062
6012.166509707,4403.2255859375,1010.2564086914062
6012.199230232,4403.2255859375,1010.2564086914062
6012.200381156,4411.85107421875,1010.989013671875
6012.23302904,4411.85107421875,1010.2564086914062
6012.234124257,4403.2255859375,1009.5238037109375
6012.290599883,4394.63427734375,1010.2564086914062
6012.291553762,4403.2255859375,1013.1868286132812
6012.331531734,4394.63427734375,1012.4542236328125
6012.332880407,4403.2255859375,1014.6520385742188
6012.365631772,4403.2255859375,1012.4542236328125
6012.366535503,4403.2255859375,1011.7216186523438
6012.399264006,4394.63427734375,1010.989013671875
6012.40041072,4394.63427734375,1014.6520385742188
6012.432809908,4394.63427734375,1016.1171875
6012.440646629,4403.2255859375,1016.1171875
6012.472791519,4394.63427734375,1013.1868286132812
6012.505629512,4394.63427734375,1015.3846435546875
6012.506450501,4394.63427734375,1016.1171875
6012.539097935,4394.63427734375,1016.8497924804688
6012.540428263,4403.2255859375,1016.8497924804688
6012.589039427,4394.63427734375,1013.91943359375
6012.590374104,4394.63427734375,1015.3846435546875
6012.622899985,4394.63427734375,1016.1171875
6012.623966191,4394.63427734375,1017.5823974609375
6012.656718015,4394.63427734375,1016.8497924804688
6012.661736236,4394.63427734375,1017.5823974609375
6012.694079082,4394.63427734375,1016.8497924804688
6012.695318438,4394.63427734375,1016.8497924804688
6012.728027453,4394.63427734375,1016.8497924804688
6012.760615702,4386.076171875,1016.8497924804688
6012.761495467,4403.2255859375,1014.6520385742188
6012.794332012,4394.63427734375,1012.4542236328125
6012.801532478,4394.63427734375,1015.3846435546875
6012.834167691,4394.63427734375,1016.1171875
6012.835374409,4394.63427734375,1016.8497924804688
6012.892937992,4386.076171875,1016.8497924804688
6012.89395626,4386.076171875,1015.3846435546875
6012.900421341,4386.076171875,1013.91943359375
6012.932783513,4394.63427734375,1013.91943359375
6012.971666547,4394.63427734375,1015.3846435546875
6012.972637583,4386.076171875,1016.8497924804688
6013.005498083,4386.076171875,1015.3846435546875
6013.006460096,4386.076171875,1013.91943359375
6013.039267399,4386.076171875,1013.1868286132812
6013.040379865,4386.076171875,1013.91943359375
6013.072990013,4386.076171875,1013.1868286132812
6013.080526292,4386.076171875,1013.91943359375
6013.113150572,4386.076171875,1013.1868286132812
6013.145628801,4386.076171875,1013.1868286132812
6013.14652562,4386.076171875,1013.1868286132812
6013.194391391,4386.076171875,1013.1868286132812
6013.195708799,4394.63427734375,1013.1868286132812
6013.196562061,4386.076171875,1015.3846435546875
6013.229179343,4386.076171875,1014.6520385742188
6013.261696811,4386.076171875,1013.91943359375
6013.262778079,4386.076171875,1013.91943359375
6013.295485562,4386.076171875,1013.1868286132812
6013.302874865,4386.076171875,1013.1868286132812
6013.335721133,4386.076171875,1013.1868286132812
6013.336609278,4386.076171875,1013.91943359375
6013.390398513,4394.63427734375,1013.1868286132812
6013.391525486,4386.076171875,1015.3846435546875
6013.424252457,4386.076171875,1014.6520385742188
6013.42539232,4386.076171875,1013.91943359375
6013.498055744,4386.076171875,1013.1868286132812
6013.499053952,4386.076171875,1013.1868286132812
6013.500580501,4386.076171875,1013.1868286132812
6013.501728052,4386.076171875,1013.1868286132812
6013.534152104,4377.55078125,1013.1868286132812
6013.535308732,4386.076171875,1016.8497924804688
6013.56810119,4386.076171875,1014.6520385742188
6013.611774026,4377.55078125,1013.1868286132812
6013.612944108,4386.076171875,1017.5823974609375
6013.64566612,4386.076171875,1015.3846435546875
6013.646622119,4386.076171875,1013.91943359375
6013.679413704,4377.55078125,1013.1868286132812
6013.680460272,4386.076171875,1016.8497924804688
6013.712932832,4386.076171875,1014.6520385742188
6013.717919125,4386.076171875,1013.91943359375
6013.750415356,4386.076171875,1013.1868286132812
6013.794177036,4386.076171875,1013.91943359375
6013.795313848,4386.076171875,1013.1868286132812
6013.796637692,4386.076171875,1013.91943359375
6013.82939801,4386.076171875,1013.1868286132812
6013.861874297,4377.55078125,1013.1868286132812
6013.864141858,4377.55078125,1016.1171875
6013.896743807,4377.55078125,1017.5823974609375
6013.897896314,4386.076171875,1019.047607421875
6013.930621777,4377.55078125,1016.1171875
6013.963011146,4377.55078125,1018.3150024414062
6013.96409284,4386.076171875,1018.3150024414062
6013.996887863,4377.55078125,1015.3846435546875
6013.997858537,4377.55078125,1018.3150024414062
6014.030436871,4377.55078125,1019.047607421875
6014.095483711,4377.55078125,1019.047607421875
6014.096979308,4377.55078125,1019.7802124023438
6014.098070374,4377.55078125,1019.7802124023438
6014.099104298,4377.55078125,1019.7802124023438
6014.131665913,4377.55078125,1019.7802124023438
6014.132776192,4377.55078125,1019.7802124023438
6014.165549005,4377.55078125,1019.7802124023438
6014.197902918,4369.05908203125,1019.7802124023438
6014.199099903,4377.55078125,1020.5128173828125
6014.251879066,4377.55078125,1019.7802124023438
6014.253185096,4377.55078125,1019.7802124023438
6014.285658129,4377.55078125,1019.7802124023438
6014.286632486,4377.55078125,1019.7802124023438
6014.319207897,4369.05908203125,1019.047607421875
6014.320665311,4377.55078125,1020.5128173828125
6014.353138487,4386.076171875,1019.7802124023438
6014.392921359,4377.55078125,1016.1171875
6014.396615448,4377.55078125,1019.047607421875
6014.398129094,4377.55078125,1018.3150024414062
6014.430421427,4386.076171875,1019.047607421875
6014.431594525,4377.55078125,1016.1171875
6014.464274576,4377.55078125,1017.5823974609375
6014.496622818,4369.05908203125,1019.047607421875
6014.497823525,4369.05908203125,1019.7802124023438
6014.530652419,4369.05908203125,1020.5128173828125
6014.562933727,4369.05908203125,1020.5128173828125
6014.564215814,4377.55078125,1020.5128173828125
6014.596661967,4369.05908203125,1020.5128173828125
6014.59785414,4369.05908203125,1020.5128173828125
6014.630618003,4369.05908203125,1020.5128173828125
6014.635377182,4369.05908203125,1020.5128173828125
6014.701795296,4369.05908203125,1021.2454223632812
6014.703159825,4369.05908203125,1021.2454223632812
6014.704199738,4369.05908203125,1020.5128173828125
6014.736707741,4369.05908203125,1021.2454223632812
6014.743209242,4369.05908203125,1020.5128173828125
6014.775665233,4377.55078125,1020.5128173828125
6014.776549876,4369.05908203125,1020.5128173828125
6014.809214822,4377.55078125,1020.5128173828125
6014.84179512,4369.05908203125,1020.5128173828125
6014.842837034,4369.05908203125,1020.5128173828125
6014.891817749,4369.05908203125,1020.5128173828125
6014.892849986,4360.60009765625,1020.5128173828125
6014.925693168,4369.05908203125,1024.17578125
6014.926648869,4369.05908203125,1022.7106323242188
6014.993112865,4352.173828125,1021.97802734375
6014.994170981,4360.60009765625,1023.4432373046875
6014.995391243,4360.60009765625,1025.6409912109375
6014.996539299,4352.173828125,1026.3736572265625
6015.029170259,4360.60009765625,1025.6409912109375
6015.061642476,4360.60009765625,1027.106201171875
6015.062762954,4360.60009765625,1027.106201171875
6015.095431079,4352.173828125,1027.106201171875
6015.096711598,4352.173828125,1026.3736572265625
6015.129202596,4360.60009765625,1025.6409912109375
6015.161672635,4352.173828125,1027.106201171875
6015.16282492,4360.60009765625,1026.3736572265625
6015.197891446,4352.173828125,1027.106201171875
6015.197990296,4352.173828125,1025.6409912109375
6015.229385869,4352.173828125,1025.6409912109375
6015.234129463,4352.173828125,1025.6409912109375
6015.298139117,4352.173828125,1025.6409912109375
6015.299450292,4352.173828125,1025.6409912109375
6015.3004236,4352.173828125,1025.6409912109375
6015.332949683,4352.173828125,1025.6409912109375
6015.365498001,4343.7802734375,1025.6409912109375
6015.366836396,4352.173828125,1028.5714111328125
6015.399318596,4352.173828125,1027.106201171875
6015.400322013,4352.173828125,1026.3736572265625
6015.43312989,4352.173828125,1026.3736572265625
6015.439104075,4352.173828125,1025.6409912109375
6015.471808439,4352.173828125,1025.6409912109375
6015.476909745,4343.7802734375,1025.6409912109375
6015.53162262,4352.173828125,1028.5714111328125
6015.532881912,4352.173828125,1027.106201171875
6015.597934608,4352.173828125,1026.3736572265625
6015.599026645,4352.173828125,1025.6409912109375
6015.600522154,4352.173828125,1025.6409912109375
6015.601960505,4352.173828125,1024.908447265625
6015.63541414,4343.7802734375,1024.908447265625
6015.636539284,4352.173828125,1028.5714111328125
6015.669386386,4352.173828125,1027.106201171875
6015.701753649,4343.7802734375,1026.3736572265625
6015.707887123,4343.7802734375,1028.5714111328125
6015.740423117,4343.7802734375,1030.03662109375
6015.741535843,4352.173828125,1031.5018310546875
6015.774373158,4343.7802734375,1027.8388671875
6015.775616482,4352.173828125,1030.03662109375
6015.807994189,4343.7802734375,1027.8388671875
6015.84041444,4343.7802734375,1030.03662109375
6015.841736777,4343.7802734375,1030.769287109375
6015.899370677,4343.7802734375,1030.769287109375
6015.900680739,4352.173828125,1031.5018310546875
6015.901946356,4343.7802734375,1028.5714111328125
6015.93418432,4343.7802734375,1029.3040771484375
6015.935357276,4343.7802734375,1031.5018310546875
6015.967955332,4343.7802734375,1031.5018310546875
6016.000408148,4343.7802734375,1031.5018310546875
6016.00158397,4343.7802734375,1031.5018310546875
6016.03437551,4335.41845703125,1031.5018310546875
6016.035365247,4343.7802734375,1032.234375
6016.067997355,4335.41845703125,1032.234375
6016.100406937,4343.7802734375,1032.967041015625
6016.101576123,4335.41845703125,1032.234375
6016.134287208,4335.41845703125,1032.967041015625
6016.135425087,4335.41845703125,1033.6995849609375
6016.20436407,4335.41845703125,1032.967041015625
6016.205405907,4335.41845703125,1032.967041015625
6016.206572518,4335.41845703125,1032.967041015625
6016.231682698,4327.08935546875,1032.967041015625
6016.232878768,4335.41845703125,1036.6300048828125
6016.270554907,4335.41845703125,1035.164794921875
6016.303127567,4327.08935546875,1034.4322509765625
6016.304460589,4335.41845703125,1036.6300048828125
6016.340581895,4327.08935546875,1035.164794921875
6016.341253805,4335.41845703125,1037.3626708984375
6016.37043901,4335.41845703125,1035.8974609375
6016.371580089,4335.41845703125,1033.6995849609375
6016.404389194,4335.41845703125,1033.6995849609375
6016.436893341,4327.08935546875,1032.967041015625
6016.438241826,4335.41845703125,1036.6300048828125
6016.490380772,4327.08935546875,1035.164794921875
6016.491540128,4335.41845703125,1037.3626708984375
6016.524183549,4335.41845703125,1035.164794921875
6016.525367467,4335.41845703125,1034.4322509765625
6016.55802614,4327.08935546875,1033.6995849609375
6016.559031198,4335.41845703125,1036.6300048828125
6016.591721715,4327.08935546875,1035.164794921875
6016.596624028,4335.41845703125,1037.3626708984375
6016.629171673,4335.41845703125,1035.164794921875
6016.661749089,4335.41845703125,1034.4322509765625
6016.662861714,4335.41845703125,1033.6995849609375
6016.695494207,4327.08935546875,1033.6995849609375
6016.696722609,4327.08935546875,1037.3626708984375
6016.729186408,4327.08935546875,1038.09521484375
6016.736895465,4327.08935546875,1039.5604248046875
6016.809171595,4327.08935546875,1038.827880859375
6016.810359821,4327.08935546875,1039.5604248046875
6016.811598117,4327.08935546875,1039.5604248046875
6016.824179242,4327.08935546875,1039.5604248046875
6016.856827628,4327.08935546875,1040.2930908203125
6016.857896855,4327.08935546875,1039.5604248046875
6016.890533785,4335.41845703125,1039.5604248046875
6016.89551407,4335.41845703125,1035.8974609375
6016.927988669,4335.41845703125,1034.4322509765625
6016.960390233,4327.08935546875,1034.4322509765625
6016.961697046,4327.08935546875,1037.3626708984375
6016.994361673,4327.08935546875,1038.09521484375
6016.995354573,4327.08935546875,1038.827880859375
6017.028151486,4327.08935546875,1038.827880859375
6017.0931195,4327.08935546875,1039.5604248046875
6017.094476131,4335.41845703125,1039.5604248046875
6017.095421874,4327.08935546875,1036.6300048828125
6017.096594088,4327.08935546875,1038.09521484375
6017.129163274,4327.08935546875,1038.827880859375
6017.161654461,4327.08935546875,1039.5604248046875
6017.162845524,4327.08935546875,1039.5604248046875
6017.195581822,4327.08935546875,1039.5604248046875
6017.196681467,4327.08935546875,1039.5604248046875
6017.229513599,4335.41845703125,1039.5604248046875
6017.261873533,4327.08935546875,1036.6300048828125
6017.262794859,4327.08935546875,1038.09521484375
6017.295643984,4327.08935546875,1038.827880859375
6017.300410337,4327.08935546875,1039.5604248046875
6017.332883755,4327.08935546875,1039.5604248046875
6017.334036775,4327.08935546875,1039.5604248046875
6017.390441969,4318.7919921875,1039.5604248046875
6017.391815973,4327.08935546875,1038.09521484375
6017.398002727,4327.08935546875,1038.827880859375
6017.451865771,4327.08935546875,1039.5604248046875
6017.452859025,4327.08935546875,1039.5604248046875
6017.485624237,4327.08935546875,1039.5604248046875
6017.486591304,4327.08935546875,1039.5604248046875
6017.519406535,4327.08935546875,1039.5604248046875
6017.520309136,4327.08935546875,1040.2930908203125
6017.553089428,4327.08935546875,1039.5604248046875
6017.554374015,4318.7919921875,1040.2930908203125
6017.586672985,4327.08935546875,1038.09521484375
6017.619304423,4327.08935546875,1039.5604248046875
6017.620676476,4327.08935546875,1039.5604248046875
6017.653251178,4327.08935546875,1039.5604248046875
6017.65421804,4327.08935546875,1040.2930908203125
6017.690525701,4327.08935546875,1039.5604248046875
6017.697924127,4327.08935546875,1039.5604248046875
6017.730419507,4335.41845703125,1039.5604248046875
6017.763114782,4327.08935546875,1036.6300048828125
6017.764360966,4327.08935546875,1038.827880859375
6017.79686491,4327.08935546875,1038.827880859375
6017.797830431,4327.08935546875,1039.5604248046875
6017.830648888,4327.08935546875,1039.5604248046875
6017.831938687,4327.08935546875,1039.5604248046875
6017.864508669,4327.08935546875,1039.5604248046875
6017.897026651,4327.08935546875,1039.5604248046875
6017.8981887,4327.08935546875,1040.2930908203125
6017.930722893,4327.08935546875,1039.5604248046875
6018.001756427,4327.08935546875,1039.5604248046875
6018.00290988,4327.08935546875,1039.5604248046875
6018.004089844,4327.08935546875,1039.5604248046875
6018.005419586,4327.08935546875,1039.5604248046875
6018.038061586,4318.7919921875,1039.5604248046875
6018.039065365,4327.08935546875,1037.3626708984375
6018.091828102,4327.08935546875,1038.827880859375
6018.093222499,4327.08935546875,1038.827880859375
6018.100727536,4327.08935546875,1039.5604248046875
6018.133254865,4327.08935546875,1039.5604248046875
6018.134267936,4327.08935546875,1039.5604248046875
6018.166988948,4318.7919921875,1040.2930908203125
6018.199292232,4327.08935546875,1038.09521484375
6018.200420864,4327.08935546875,1038.827880859375
6018.233155636,4327.08935546875,1038.827880859375
6018.238053643,4327.08935546875,1039.5604248046875
6018.290510987,4327.08935546875,1039.5604248046875
6018.291700013,4327.08935546875,1039.5604248046875
6018.292939038,4327.08935546875,1039.5604248046875
6018.327910138,4318.7919921875,1040.2930908203125
6018.358020333,4318.7919921875,1037.3626708984375
6018.359144464,4327.08935546875,1036.6300048828125
6018.3919848,4327.08935546875,1038.09521484375
6018.39679174,4318.7919921875,1038.827880859375
6018.429300818,4327.08935546875,1037.3626708984375
6018.430431786,4327.08935546875,1038.827880859375
6018.463257005,4327.08935546875,1039.5604248046875
6018.495769398,4327.08935546875,1039.5604248046875
6018.496738625,4318.7919921875,1040.2930908203125
6018.529621889,4327.08935546875,1037.3626708984375
6018.595759135,4327.08935546875,1038.827880859375
6018.597065273,4327.08935546875,1039.5604248046875
6018.598304832,4318.7919921875,1039.5604248046875
6018.599243227,4318.7919921875,1037.3626708984375
6018.631795469,4327.08935546875,1036.6300048828125
6018.632926913,4327.08935546875,1038.09521484375
6018.665649363,4318.7919921875,1039.5604248046875
6018.698088423,4318.7919921875,1037.3626708984375
6018.699273812,4327.08935546875,1036.6300048828125
6018.73204139,4327.08935546875,1038.09521484375
6018.764456465,4318.7919921875,1039.5604248046875
6018.76553431,4327.08935546875,1036.6300048828125
6018.798243318,4318.7919921875,1038.09521484375
6018.79951718,4318.7919921875,1037.3626708984375
6018.831991158,4327.08935546875,1036.6300048828125
6018.832990099,4318.7919921875,1038.827880859375
6018.892002317,4318.7919921875,1036.6300048828125
6018.893070239,4310.5263671875,1035.8974609375
6018.899515308,4318.7919921875,1039.5604248046875
6018.931781516,4318.7919921875,1037.3626708984375
6018.932886994,4318.7919921875,1036.6300048828125
6018.965783841,4318.7919921875,1035.8974609375
6018.998267211,4318.7919921875,1035.8974609375
6018.99937064,4318.7919921875,1035.8974609375
6019.033068507,4318.7919921875,1035.8974609375
6019.034215612,4318.7919921875,1035.8974609375
6019.066819415,4318.7919921875,1035.8974609375
6019.071990539,4318.7919921875,1035.8974609375
6019.10430935,4318.7919921875,1035.8974609375
6019.136897698,4318.7919921875,1035.8974609375
6019.137937222,4318.7919921875,1035.8974609375
6019.200746721,4318.7919921875,1035.8974609375
6019.201698517,4318.7919921875,1035.8974609375
6019.202949023,4318.7919921875,1035.8974609375
6019.235522637,4310.5263671875,1035.8974609375
6019.236753021,4310.5263671875,1039.5604248046875
6019.269312119,4318.7919921875,1041.025634765625
6019.270454371,4302.29248046875,1038.09521484375
6019.303069284,4310.5263671875,1041.025634765625
6019.335606441,4310.5263671875,1041.75830078125
6019.336728668,4302.29248046875,1041.75830078125
6019.371760678,4310.5263671875,1042.4908447265625
6019.376962934,4310.5263671875,1042.4908447265625
6019.409402817,4310.5263671875,1042.4908447265625
6019.410616021,4310.5263671875,1042.4908447265625
6019.443033733,4310.5263671875,1042.4908447265625
6019.491125053,4310.5263671875,1042.4908447265625
6019.493020371,4310.5263671875,1042.4908447265625
6019.494446012,4310.5263671875,1042.4908447265625
6019.527082389,4310.5263671875,1042.4908447265625
6019.559298598,4310.5263671875,1042.4908447265625
6019.560480595,4310.5263671875,1042.4908447265625
6019.593154293,4302.29248046875,1041.75830078125
6019.594221541,4310.5263671875,1043.223388671875
6019.627082342,4310.5263671875,1043.223388671875
6019.659568045,4302.29248046875,1043.223388671875
6019.660831364,4310.5263671875,1043.223388671875
6019.693280719,4310.5263671875,1042.4908447265625
6019.69822208,4310.5263671875,1042.4908447265625
6019.730528507,4310.5263671875,1042.4908447265625
6019.803057441,4310.5263671875,1042.4908447265625
6019.804139913,4310.5263671875,1042.4908447265625
6019.805479064,4310.5263671875,1042.4908447265625
6019.813090668,4310.5263671875,1042.4908447265625
6019.814177787,4302.29248046875,1041.75830078125
6019.84686071,4310.5263671875,1043.223388671875
6019.879534614,4310.5263671875,1042.4908447265625
6019.880595871,4310.5263671875,1042.4908447265625
6019.913039019,4302.29248046875,1042.4908447265625
6019.914443962,4310.5263671875,1043.223388671875
6019.946827708,4310.5263671875,1043.223388671875
6019.980605851,4310.5263671875,1042.4908447265625
6019.981672877,4310.5263671875,1042.4908447265625
6020.012005353,4302.29248046875,1041.75830078125
6020.01697614,4310.5263671875,1043.223388671875
6020.049294515,4302.29248046875,1042.4908447265625
6020.050441295,4302.29248046875,1043.223388671875
6020.098047626,4302.29248046875,1043.223388671875
6020.09962411,4302.29248046875,1043.223388671875
6020.132231066,4302.29248046875,1043.223388671875
6020.133046077,4302.29248046875,1043.9560546875
6020.165782273,4302.29248046875,1043.223388671875
6020.198083901,4302.29248046875,1043.223388671875
6020.199210148,4302.29248046875,1043.223388671875
6020.232074805,4302.29248046875,1043.9560546875
6020.233008171,4302.29248046875,1043.9560546875
6020.259626102,4294.08984375,1043.9560546875
6020.293068387,4294.08984375,1046.886474609375
6020.294263862,4302.29248046875,1048.3516845703125
6020.326933367,4294.08984375,1046.15380859375
6020.399398756,4294.08984375,1048.3516845703125
6020.400503946,4294.08984375,1049.084228515625
6020.401769499,4302.29248046875,1049.81689453125
6020.403115954,4302.29248046875,1046.15380859375
6020.435509659,4294.08984375,1044.6885986328125
6020.436678966,4302.29248046875,1048.3516845703125
6020.469429106,4302.29248046875,1045.4212646484375
6020.476798676,4294.08984375,1044.6885986328125
6020.509280434,4294.08984375,1047.6190185546875
6020.51061198,4302.29248046875,1049.084228515625
6020.54324511,4294.08984375,1046.15380859375
6020.575758559,4294.08984375,1048.3516845703125
6020.577101979,4302.29248046875,1049.81689453125
6020.609427696,4302.29248046875,1046.15380859375
6020.616954021,4294.08984375,1045.4212646484375
6020.651891878,4302.29248046875,1047.6190185546875
6020.691961649,4294.08984375,1046.15380859375
6020.692935432,4294.08984375,1047.6190185546875
6020.694214414,4294.08984375,1049.084228515625
6020.726991874,4294.08984375,1049.81689453125
6020.759647134,4294.08984375,1049.81689453125
6020.760799182,4302.29248046875,1049.81689453125
6020.793242214,4294.08984375,1046.886474609375
6020.794218774,4294.08984375,1049.084228515625
6020.827143099,4294.08984375,1049.084228515625
6020.859520631,4294.08984375,1049.81689453125
6020.860832875,4294.08984375,1049.81689453125
6020.893263204,4294.08984375,1050.5494384765625
6020.894262602,4294.08984375,1050.5494384765625
6020.927012757,4294.08984375,1050.5494384765625
6020.998045052,4285.91796875,1050.5494384765625
6020.999197811,4294.08984375,1048.3516845703125
6021.000446067,4285.91796875,1049.81689453125
6021.001639245,4285.91796875,1048.3516845703125
6021.034285338,4294.08984375,1046.886474609375
6021.035562378,4285.91796875,1049.084228515625
6021.068125515,4294.08984375,1047.6190185546875
6021.075611398,4294.08984375,1049.084228515625
6021.108491557,4294.08984375,1049.81689453125
6021.140747648,4294.08984375,1049.81689453125
6021.141947931,4294.08984375,1050.5494384765625
6021.174735664,4285.91796875,1049.81689453125
6021.175440603,4294.08984375,1048.3516845703125
6021.208271914,4294.08984375,1049.084228515625
6021.214345192,4285.91796875,1049.81689453125
6021.246813317,4294.08984375,1048.3516845703125
6021.315826435,4294.08984375,1049.084228515625
6021.317168928,4285.91796875,1049.81689453125
6021.317998382,4285.91796875,1048.3516845703125
6021.320225608,4294.08984375,1047.6190185546875
6021.351807579,4294.08984375,1048.3516845703125
6021.384511048,4285.91796875,1049.084228515625
6021.385851125,4294.08984375,1048.3516845703125
6021.418253473,4285.91796875,1049.81689453125
6021.419597279,4294.08984375,1047.6190185546875
6021.451819236,4285.91796875,1049.81689453125
6021.484825594,4285.91796875,1048.3516845703125
6021.485459218,4285.91796875,1046.886474609375
6021.518142508,4285.91796875,1046.886474609375
6021.51938589,4285.91796875,1046.886474609375
6021.552116231,4285.91796875,1046.15380859375
6021.553019312,4285.91796875,1046.15380859375
6021.58902802,4285.91796875,1046.886474609375
6021.620525686,4285.91796875,1046.886474609375
6021.621733427,4285.91796875,1046.886474609375
6021.65460972,4285.91796875,1046.886474609375
6021.655478123,4285.91796875,1046.886474609375
6021.688268519,4277.77783203125,1046.886474609375
6021.692967643,4285.91796875,1049.81689453125
6021.725756626,4285.91796875,1048.3516845703125
6021.758115186,4285.91796875,1047.6190185546875
6021.759528153,4285.91796875,1047.6190185546875
6021.792016347,4285.91796875,1046.886474609375
6021.793028077,4285.91796875,1046.886474609375
6021.825806724,4285.91796875,1046.886474609375
6021.898244182,4294.08984375,1046.886474609375
6021.899799811,4285.91796875,1049.084228515625
6021.900498694,4285.91796875,1047.6190185546875
6021.904603932,4285.91796875,1046.886474609375
6021.931809972,4294.08984375,1046.886474609375
6021.936770975,4294.08984375,1048.3516845703125
6021.969465141,4294.08984375,1049.084228515625
6021.970792808,4294.08984375,1049.81689453125
6022.003018151,4294.08984375,1049.81689453125
6022.035738094,4285.91796875,1049.81689453125
6022.036733034,4294.08984375,1048.3516845703125
6022.06943567,4294.08984375,1049.084228515625
6022.076828998,4294.08984375,1049.81689453125
6022.109657518,4294.08984375,1049.81689453125
6022.110653036,4285.91796875,1050.5494384765625
6022.143384265,4285.91796875,1048.3516845703125
6022.19577905,4285.91796875,1046.886474609375
6022.196854704,4294.08984375,1047.6190185546875
6022.198052311,4285.91796875,1048.3516845703125
6022.230685869,4285.91796875,1047.6190185546875
6022.2317412,4285.91796875,1046.886474609375
6022.264630099,4285.91796875,1046.886474609375
6022.271980146,4294.08984375,1046.15380859375
6022.30439416,4285.91796875,1048.3516845703125
6022.33695085,4285.91796875,1047.6190185546875
6022.338006148,4285.91796875,1046.886474609375
6022.370740764,4285.91796875,1046.886474609375
6022.371741121,4285.91796875,1046.886474609375
6022.404564484,4285.91796875,1046.15380859375
6022.437010415,4285.91796875,1046.15380859375
6022.438317445,4285.91796875,1046.886474609375
6022.498235356,4285.91796875,1046.886474609375
6022.499613459,4285.91796875,1046.886474609375
6022.500944229,4285.91796875,1046.886474609375
6022.533153928,4277.77783203125,1046.886474609375
6022.534363692,4285.91796875,1050.5494384765625
6022.571933283,4285.91796875,1048.3516845703125
6022.57300399,4285.91796875,1047.6190185546875
6022.60587319,4285.91796875,1046.886474609375
6022.611947464,4285.91796875,1046.886474609375
6022.644550265,4285.91796875,1046.886474609375
6022.677109944,4285.91796875,1046.886474609375
6022.678037909,4285.91796875,1046.886474609375
6022.710795252,4277.77783203125,1046.886474609375
6022.715915207,4285.91796875,1050.5494384765625
6022.748165674,4285.91796875,1048.3516845703125
6022.749306798,4277.77783203125,1047.6190185546875
6022.789494124,4277.77783203125,1049.81689453125
6022.79057618,4277.77783203125,1052.0146484375
6022.823378384,4285.91796875,1052.7471923828125
6022.855888932,4277.77783203125,1049.084228515625
6022.856860404,4285.91796875,1051.2821044921875
6022.889603964,4277.77783203125,1049.084228515625
6022.896891105,4285.91796875,1051.2821044921875
6022.929612581,4277.77783203125,1049.084228515625
6022.930586611,4285.91796875,1051.2821044921875
6022.963359231,4277.77783203125,1049.084228515625
6022.995853045,4277.77783203125,1050.5494384765625
6022.996892276,4277.77783203125,1052.0146484375
6023.029620095,4277.77783203125,1052.7471923828125
6023.100771946,4277.77783203125,1052.7471923828125
6023.102110847,4277.77783203125,1052.7471923828125
6023.103479256,4277.77783203125,1052.7471923828125
6023.104415402,4277.77783203125,1053.4798583984375
6023.136916984,4277.77783203125,1052.7471923828125
6023.138064953,4277.77783203125,1053.4798583984375
6023.170914224,4277.77783203125,1052.7471923828125
6023.172198418,4277.77783203125,1053.4798583984375
6023.211936484,4277.77783203125,1053.4798583984375
6023.218176268,4277.77783203125,1052.7471923828125
6023.25068646,4285.91796875,1053.4798583984375
6023.25179147,4277.77783203125,1049.81689453125
6023.284530534,4285.91796875,1051.2821044921875
6023.317120417,4285.91796875,1049.084228515625
6023.318067206,4277.77783203125,1048.3516845703125
6023.350669228,4277.77783203125,1050.5494384765625
6023.351935277,4277.77783203125,1052.0146484375
6023.396910296,4277.77783203125,1052.7471923828125
6023.398065148,4277.77783203125,1052.7471923828125
6023.430858957,4277.77783203125,1052.7471923828125
6023.431905858,4277.77783203125,1052.7471923828125
6023.464625287,4285.91796875,1052.7471923828125
6023.497132666,4277.77783203125,1049.81689453125
6023.498369215,4277.77783203125,1051.2821044921875
6023.530698898,4277.77783203125,1052.0146484375
6023.538407286,4277.77783203125,1052.7471923828125
6023.570666141,4277.77783203125,1053.4798583984375
6023.57181425,4277.77783203125,1053.4798583984375
6023.6046233,4269.66845703125,1053.4798583984375
6023.637120682,4269.66845703125,1054.21240234375
6023.63811858,4269.66845703125,1054.21240234375
6023.695880775,4277.77783203125,1054.21240234375
6023.696929572,4269.66845703125,1054.21240234375
6023.698139567,4277.77783203125,1054.21240234375
6023.730853111,4269.66845703125,1053.4798583984375
6023.731885686,4269.66845703125,1054.21240234375
6023.764665561,4269.66845703125,1054.945068359375
6023.797117602,4269.66845703125,1054.945068359375
6023.798106942,4269.66845703125,1054.21240234375
6023.852153596,4269.66845703125,1054.21240234375
6023.853169903,4269.66845703125,1054.21240234375
6023.854343624,4269.66845703125,1054.21240234375
6023.886948352,4269.66845703125,1054.945068359375
6023.888074818,4269.66845703125,1054.945068359375
6023.920943482,4269.66845703125,1054.21240234375
6023.95455041,4269.66845703125,1054.21240234375
6023.955572595,4269.66845703125,1054.945068359375
6023.99066298,4269.66845703125,1054.945068359375
6023.99180186,4269.66845703125,1054.945068359375
6024.02458735,4269.66845703125,1054.945068359375
6024.029537707,4269.66845703125,1054.21240234375
6024.063958576,4269.66845703125,1054.945068359375
6024.094589147,4269.66845703125,1054.21240234375
6024.095622582,4269.66845703125,1054.21240234375
6024.128359892,4277.77783203125,1054.21240234375
6024.133344305,4269.66845703125,1053.4798583984375
6024.165770666,4269.66845703125,1054.21240234375
6024.198130961,4269.66845703125,1054.21240234375
6024.19929044,4269.66845703125,1054.21240234375
6024.2318866,4269.66845703125,1054.21240234375
6024.23301746,4269.66845703125,1054.945068359375
6024.294445462,4269.66845703125,1054.21240234375
6024.295697309,4269.66845703125,1054.945068359375
6024.296965193,4269.66845703125,1054.21240234375
6024.323167169,4269.66845703125,1054.945068359375
6024.358198049,4269.66845703125,1054.945068359375
6024.359753024,4269.66845703125,1054.945068359375
6024.391943465,4269.66845703125,1054.21240234375
6024.393586286,4269.66845703125,1054.945068359375
6024.42588198,4269.66845703125,1054.945068359375
6024.433135314,4269.66845703125,1054.21240234375
6024.465718147,4269.66845703125,1054.21240234375
6024.493369675,4269.66845703125,1054.21240234375
6024.494352411,4261.58935546875,1054.945068359375
6024.527149676,4269.66845703125,1057.87548828125
6024.528153303,4261.58935546875,1056.4102783203125
6024.591943725,4269.66845703125,1058.6080322265625
6024.593106356,4261.58935546875,1057.142822265625
6024.594453263,4261.58935546875,1059.3406982421875
6024.62696221,4269.66845703125,1060.0732421875
6024.63439327,4269.66845703125,1057.142822265625
6024.667112559,4261.58935546875,1056.4102783203125
6024.668141638,4261.58935546875,1058.6080322265625
6024.7007667,4261.58935546875,1060.0732421875
6024.733403407,4261.58935546875,1060.0732421875
6024.734348488,4261.58935546875,1060.805908203125
6024.767117485,4261.58935546875,1060.805908203125
6024.799713176,4261.58935546875,1060.805908203125
6024.800575407,4261.58935546875,1060.805908203125
6024.833129034,4261.58935546875,1060.805908203125
6024.834343091,4261.58935546875,1060.805908203125
6024.900866406,4253.541015625,1061.5384521484375
6024.90213651,4261.58935546875,1059.3406982421875
6024.903260881,4261.58935546875,1060.0732421875
6024.935754187,4261.58935546875,1060.805908203125
6024.936880057,4261.58935546875,1061.5384521484375
6024.969408924,4261.58935546875,1060.805908203125
6024.970852916,4261.58935546875,1061.5384521484375
6025.003176411,4261.58935546875,1061.5384521484375
6025.010657762,4261.58935546875,1061.5384521484375
6025.04316231,4253.541015625,1061.5384521484375
6025.075861556,4253.541015625,1059.3406982421875
6025.07721582,4253.541015625,1058.6080322265625
6025.131942513,4253.541015625,1057.142822265625
6025.133093159,4261.58935546875,1057.142822265625
6025.13433865,4253.541015625,1060.0732421875
6025.198412287,4253.541015625,1057.87548828125
6025.199691942,4253.541015625,1057.87548828125
6025.20063594,4245.52294921875,1057.142822265625
6025.233135091,4253.541015625,1060.805908203125
6025.234314555,4253.541015625,1059.3406982421875
6025.266919367,4253.541015625,1058.6080322265625
6025.274555169,4253.541015625,1057.87548828125
6025.307015035,4253.541015625,1057.87548828125
6025.308067552,4245.52294921875,1057.87548828125
6025.34087608,4253.541015625,1060.805908203125
6025.373417085,4245.52294921875,1058.6080322265625
6025.374384537,4253.541015625,1061.5384521484375
6025.40688363,4245.52294921875,1059.3406982421875
6025.414468869,4253.541015625,1061.5384521484375
6025.446881859,4245.52294921875,1059.3406982421875
6025.488378651,4245.52294921875,1061.5384521484375
6025.489706199,4245.52294921875,1063.003662109375
6025.49061039,4245.52294921875,1063.7362060546875
6025.52339248,4245.52294921875,1063.003662109375
6025.555894469,4245.52294921875,1064.4688720703125
6025.557178891,4245.52294921875,1063.7362060546875
6025.589615951,4245.52294921875,1063.003662109375
6025.594422875,4245.52294921875,1063.7362060546875
6025.626927357,4245.52294921875,1063.7362060546875
6025.628052623,4245.52294921875,1063.7362060546875
6025.660883507,4237.53515625,1063.7362060546875
6025.69347723,4237.53515625,1064.4688720703125
6025.694395976,4245.52294921875,1065.201416015625
6025.72693469,4237.53515625,1064.4688720703125
6025.799450813,4237.53515625,1065.201416015625
6025.800642714,4237.53515625,1065.201416015625
6025.802198032,4237.53515625,1065.201416015625
6025.812132892,4237.53515625,1065.93408203125
6025.813126879,4237.53515625,1065.93408203125
6025.845861377,4237.53515625,1065.201416015625
6025.853130817,4237.53515625,1065.93408203125
6025.885673783,4229.57763671875,1065.93408203125
6025.918180423,4237.53515625,1069.5970458984375
6025.919280564,4229.57763671875,1066.6666259765625
6025.951917618,4237.53515625,1069.5970458984375
6025.953064435,4237.53515625,1067.3992919921875
6025.985742929,4237.53515625,1066.6666259765625
6025.986877324,4229.57763671875,1065.93408203125
6026.019436504,4237.53515625,1068.864501953125
6026.052073806,4229.57763671875,1067.3992919921875
6026.053030855,4237.53515625,1070.3297119140625
6026.095783339,4237.53515625,1068.1318359375
6026.096792658,4237.53515625,1066.6666259765625
6026.129632278,4229.57763671875,1065.93408203125
6026.130792754,4229.57763671875,1069.5970458984375
6026.163392347,4229.57763671875,1071.062255859375
6026.195728956,4229.57763671875,1071.062255859375
6026.19682545,4229.57763671875,1071.794921875
6026.229740301,4229.57763671875,1071.794921875
6026.230615375,4237.53515625,1071.794921875
6026.263237647,4237.53515625,1068.864501953125
6026.268206507,4237.53515625,1067.3992919921875
6026.300835349,4237.53515625,1066.6666259765625
6026.33349624,4221.6494140625,1065.93408203125
6026.334310362,4229.57763671875,1066.6666259765625
6026.4070508,4229.57763671875,1068.864501953125
6026.408426705,4229.57763671875,1070.3297119140625
6026.409379382,4229.57763671875,1071.062255859375
6026.425889082,4229.57763671875,1071.794921875
6026.458370557,4237.53515625,1071.794921875
6026.459396875,4229.57763671875,1068.864501953125
6026.492047095,4229.57763671875,1070.3297119140625
6026.493067065,4229.57763671875,1071.062255859375
6026.525719982,4229.57763671875,1071.794921875
6026.533278371,4229.57763671875,1071.794921875
6026.565699161,4229.57763671875,1071.794921875
6026.598313464,4229.57763671875,1071.794921875
6026.599424773,4229.57763671875,1071.794921875
6026.632128558,4229.57763671875,1071.794921875
6026.633144642,4229.57763671875,1071.794921875
6026.694501318,4229.57763671875,1071.794921875
6026.695820565,4229.57763671875,1072.5274658203125
6026.696822872,4229.57763671875,1071.794921875
6026.729449871,4221.6494140625,1071.794921875
6026.730560827,4221.6494140625,1069.5970458984375
6026.763372857,4229.57763671875,1068.1318359375
6026.768181184,4221.6494140625,1069.5970458984375
6026.800662619,4221.6494140625,1068.1318359375
6026.833164726,4221.6494140625,1067.3992919921875
6026.834367929,4221.6494140625,1067.3992919921875
6026.866944769,4229.57763671875,1067.3992919921875
6026.871942471,4221.6494140625,1069.5970458984375
6026.904397613,4221.6494140625,1068.1318359375
6026.905569851,4221.6494140625,1067.3992919921875
6026.938299179,4221.6494140625,1067.3992919921875
6026.999417448,4221.6494140625,1066.6666259765625
6027.000580567,4221.6494140625,1066.6666259765625
6027.001771938,4221.6494140625,1066.6666259765625
6027.051931854,4221.6494140625,1066.6666259765625
6027.053259491,4229.57763671875,1066.6666259765625
6027.054346725,4221.6494140625,1069.5970458984375
6027.086895565,4221.6494140625,1068.1318359375
6027.08807877,4221.6494140625,1066.6666259765625
6027.120875305,4221.6494140625,1066.6666259765625
6027.153206454,4221.6494140625,1066.6666259765625
6027.154358297,4221.6494140625,1066.6666259765625
6027.186948613,4229.57763671875,1066.6666259765625
6027.191882543,4221.6494140625,1069.5970458984375
6027.224393843,4229.57763671875,1068.1318359375
6027.225612039,4221.6494140625,1070.3297119140625
6027.290693685,4229.57763671875,1068.1318359375
6027.291837074,4229.57763671875,1069.5970458984375
6027.293660126,4221.6494140625,1071.062255859375
6027.325836207,4229.57763671875,1068.864501953125
6027.333262948,4221.6494140625,1070.3297119140625
6027.365713592,4229.57763671875,1068.864501953125
6027.398314988,4221.6494140625,1070.3297119140625
6027.399336158,4221.6494140625,1068.1318359375
6027.432185146,4221.6494140625,1067.3992919921875
6027.433149553,4221.6494140625,1067.3992919921875
6027.465763009,4229.57763671875,1066.6666259765625
6027.470996731,4221.6494140625,1069.5970458984375
6027.503331698,4221.6494140625,1068.1318359375
6027.536007266,4229.57763671875,1067.3992919921875
6027.537203366,4229.57763671875,1070.3297119140625
6027.600714461,4229.57763671875,1071.062255859375
6027.601960207,4221.6494140625,1071.794921875
6027.603202995,4229.57763671875,1068.864501953125
6027.635810991,4229.57763671875,1070.3297119140625
6027.636981166,4229.57763671875,1071.794921875
6027.692251515,4229.57763671875,1071.062255859375
6027.693278204,4229.57763671875,1071.794921875
6027.694430895,4229.57763671875,1071.794921875
6027.727390674,4229.57763671875,1071.794921875
6027.728416505,4221.6494140625,1071.794921875
6027.760853647,4229.57763671875,1069.5970458984375
6027.793364075,4221.6494140625,1071.062255859375
6027.794551159,4221.6494140625,1068.864501953125
6027.827241492,4221.6494140625,1068.1318359375
6027.832153536,4221.6494140625,1067.3992919921875
6027.899600557,4229.57763671875,1067.3992919921875
6027.900744134,4221.6494140625,1069.5970458984375
6027.901986525,4221.6494140625,1068.1318359375
6027.934559672,4229.57763671875,1067.3992919921875
6027.93572175,4229.57763671875,1069.5970458984375
6027.968461446,4229.57763671875,1071.062255859375
6027.975962536,4221.6494140625,1072.5274658203125
6028.008445345,4229.57763671875,1068.864501953125
6028.013293005,4253.541015625,1070.3297119140625
6028.045839112,4302.29248046875,1063.7362060546875
6028.046990977,4213.7509765625,1053.4798583984375
6028.079651542,4136.36376953125,1063.7362060546875
6028.112105152,4106.19873046875,1085.7142333984375
6028.11376526,4106.19873046875,1101.098876953125
6028.145813257,4098.72607421875,1109.157470703125
6028.153276083,4098.72607421875,1112.087890625
6028.202257612,4091.28076171875,1113.5531005859375
6028.203227728,4091.28076171875,1117.94873046875
6028.210901569,4091.28076171875,1120.146484375
6028.243982877,4091.28076171875,1120.879150390625
6028.25079482,4091.28076171875,1120.879150390625
6028.292272928,4098.72607421875,1121.6116943359375
6028.293582169,4098.72607421875,1117.94873046875
6028.332034885,4098.72607421875,1116.4835205078125
6028.333147751,4098.72607421875,1115.7509765625
6028.360999328,4091.28076171875,1115.018310546875
6028.393550088,4098.72607421875,1118.6812744140625
6028.394555617,4098.72607421875,1116.4835205078125
6028.427083816,4098.72607421875,1115.7509765625
6028.428219268,4098.72607421875,1115.018310546875
6028.492241026,4091.28076171875,1115.018310546875
6028.493628725,4098.72607421875,1118.6812744140625
6028.494527993,4098.72607421875,1116.4835205078125
6028.527059321,4098.72607421875,1115.7509765625
6028.528369944,4098.72607421875,1115.7509765625
6028.560797255,4098.72607421875,1115.018310546875
6028.593291415,4098.72607421875,1115.018310546875
6028.594391338,4091.28076171875,1115.018310546875
6028.627061205,4091.28076171875,1117.94873046875
6028.659785647,4098.72607421875,1120.146484375
6028.661126077,4098.72607421875,1117.216064453125
6028.693429497,4091.28076171875,1116.4835205078125
6028.694601144,4098.72607421875,1118.6812744140625
6028.726992917,4091.28076171875,1116.4835205078125
6028.728204836,4091.28076171875,1119.4139404296875
6028.798542303,4098.72607421875,1120.146484375
6028.799522295,4098.72607421875,1117.216064453125
6028.801080202,4106.19873046875,1115.7509765625
6028.833565965,4098.72607421875,1115.018310546875
6028.83463194,4106.19873046875,1115.018310546875
6028.868493255,4106.19873046875,1115.7509765625
6028.869529287,4113.69873046875,1115.7509765625
6028.902263208,4106.19873046875,1112.820556640625
6028.934818271,4106.19873046875,1114.2857666015625
6028.935747764,4113.69873046875,1115.018310546875
6028.972028805,4113.69873046875,1112.087890625
6028.97967547,4128.78076171875,1110.6226806640625
6029.012030791,4121.22607421875,1105.4945068359375
6029.01317464,4128.78076171875,1106.22705078125
6029.045809773,4128.78076171875,1103.2967529296875
6029.047148115,4121.22607421875,1101.83154296875
6029.097117564,4136.36376953125,1104.761962890625
6029.098151726,4136.36376953125,1104.761962890625
6029.13099836,4136.36376953125,1104.029296875
6029.131970943,4143.97412109375,1104.761962890625
6029.164695965,4143.97412109375,1101.098876953125
6029.165719845,4143.97412109375,1099.6336669921875
6029.198482935,4136.36376953125,1098.901123046875
6029.230944955,4136.36376953125,1101.83154296875
6029.23198563,4136.36376953125,1103.2967529296875
6029.264741831,4136.36376953125,1104.029296875
6029.272175227,4143.97412109375,1104.761962890625
6029.30452315,4136.36376953125,1101.098876953125
6029.305757303,4136.36376953125,1102.5640869140625
6029.33841736,4143.97412109375,1104.029296875
6029.404716847,4143.97412109375,1101.098876953125
6029.406078287,4143.97412109375,1098.901123046875
6029.407023385,4143.97412109375,1098.16845703125
6029.413383444,4143.97412109375,1098.16845703125
6029.44581226,4151.61279296875,1098.16845703125
6029.478372905,4143.97412109375,1097.4359130859375
6029.479486519,4136.36376953125,1097.4359130859375
6029.512258973,4136.36376953125,1101.098876953125
6029.513305393,4136.36376953125,1103.2967529296875
6029.545966663,4136.36376953125,1104.029296875
6029.546962422,4128.78076171875,1104.029296875
6029.579735448,4136.36376953125,1102.5640869140625
6029.612139225,4136.36376953125,1104.029296875
6029.614602177,4136.36376953125,1104.029296875
6029.647150284,4136.36376953125,1104.029296875
6029.64825376,4136.36376953125,1104.761962890625
6029.693250503,4136.36376953125,1104.029296875
6029.694435282,4136.36376953125,1104.761962890625
6029.727065125,4128.78076171875,1104.029296875
6029.728207462,4136.36376953125,1102.5640869140625
6029.760799387,4143.97412109375,1103.2967529296875
6029.793501306,4143.97412109375,1101.098876953125
6029.794582837,4136.36376953125,1098.901123046875
6029.827063054,4136.36376953125,1101.83154296875
6029.828171562,4128.78076171875,1103.2967529296875
6029.860800839,4121.22607421875,1101.83154296875
6029.893301339,4121.22607421875,1104.761962890625
6029.894491854,4113.69873046875,1106.22705078125
6029.927060107,4113.69873046875,1107.6922607421875
6029.932272624,4113.69873046875,1108.4249267578125
6029.99211578,4113.69873046875,1109.157470703125
6029.993294295,4106.19873046875,1109.157470703125
6029.994857426,4098.72607421875,1112.820556640625
6030.027175089,4098.72607421875,1113.5531005859375
6030.028294694,4098.72607421875,1114.2857666015625
6030.060849525,4098.72607421875,1114.2857666015625
6030.093274116,4098.72607421875,1114.2857666015625
6030.094601137,4098.72607421875,1114.2857666015625
6030.127129592,4098.72607421875,1115.018310546875
6030.128264837,4098.72607421875,1115.018310546875
6030.161010403,4098.72607421875,1115.018310546875
6030.193374375,4098.72607421875,1115.018310546875
6030.194575429,4091.28076171875,1115.018310546875
6030.252162027,4091.28076171875,1117.94873046875
6030.253552501,4091.28076171875,1120.146484375
6030.254528998,4091.28076171875,1120.879150390625
6030.290984657,4091.28076171875,1121.6116943359375
6030.291895955,4091.28076171875,1121.6116943359375
6030.324550094,4091.28076171875,1121.6116943359375
6030.332048827,4091.28076171875,1121.6116943359375
6030.364509305,4091.28076171875,1121.6116943359375
6030.369789254,4091.28076171875,1121.6116943359375
6030.402132256,4091.28076171875,1121.6116943359375
6030.434659022,4091.28076171875,1121.6116943359375
6030.43607346,4091.28076171875,1121.6116943359375
6030.468319065,4091.28076171875,1121.6116943359375
6030.469522572,4091.28076171875,1121.6116943359375
6030.50209621,4091.28076171875,1121.6116943359375
6030.534743148,4091.28076171875,1121.6116943359375
6030.536151822,4091.28076171875,1121.6116943359375
6030.590805654,4083.8623046875,1121.6116943359375
6030.591894539,4098.72607421875,1122.3443603515625
6030.593216426,4098.72607421875,1118.6812744140625
6030.625802366,4091.28076171875,1117.216064453125
6030.626961255,4098.72607421875,1119.4139404296875
6030.659749354,4098.72607421875,1116.4835205078125
6030.692095433,4091.28076171875,1116.4835205078125
6030.693238576,4091.28076171875,1118.6812744140625
6030.726027691,4091.28076171875,1120.146484375
6030.73074175,4091.28076171875,1120.879150390625
6030.763596729,4091.28076171875,1120.879150390625
6030.7648183,4098.72607421875,1120.879150390625
6030.797245132,4098.72607421875,1117.94873046875
6030.829513621,4091.28076171875,1116.4835205078125
6030.830697364,4098.72607421875,1119.4139404296875
6030.903532051,4091.28076171875,1117.216064453125
6030.904416128,4091.28076171875,1119.4139404296875
6030.905997457,4091.28076171875,1120.879150390625
6030.924632822,4091.28076171875,1120.879150390625
6030.925748878,4091.28076171875,1120.879150390625
6030.958408201,4091.28076171875,1120.879150390625
6030.990919885,4091.28076171875,1120.879150390625
6030.991967636,4098.72607421875,1121.6116943359375
6031.024562241,4091.28076171875,1117.94873046875
6031.02966374,4091.28076171875,1120.146484375
6031.062051312,4091.28076171875,1120.146484375
6031.066993397,4098.72607421875,1120.879150390625
6031.099556986,4098.72607421875,1117.94873046875
6031.132152558,4091.28076171875,1116.4835205078125
6031.133232372,4091.28076171875,1118.6812744140625
6031.190808877,4091.28076171875,1120.146484375
6031.192122301,4091.28076171875,1121.6116943359375
6031.193270896,4091.28076171875,1121.6116943359375
6031.226133861,4091.28076171875,1121.6116943359375
6031.258587191,4091.28076171875,1121.6116943359375
6031.259503008,4098.72607421875,1121.6116943359375
6031.292265244,4091.28076171875,1117.94873046875
6031.293723182,4091.28076171875,1120.146484375
6031.327375836,4083.8623046875,1120.879150390625
6031.32841097,4098.72607421875,1122.3443603515625
6031.361008578,4098.72607421875,1117.94873046875
6031.393643198,4091.28076171875,1116.4835205078125
6031.394826628,4091.28076171875,1119.4139404296875
6031.427244434,4091.28076171875,1120.146484375
6031.428349027,4091.28076171875,1120.879150390625
6031.494590605,4098.72607421875,1120.879150390625
6031.495645431,4098.72607421875,1117.94873046875
6031.496898019,4098.72607421875,1116.4835205078125
6031.532063311,4091.28076171875,1115.018310546875
6031.533311625,4091.28076171875,1118.6812744140625
6031.56579333,4091.28076171875,1120.146484375
6031.567004792,4098.72607421875,1120.879150390625
6031.599577146,4098.72607421875,1117.94873046875
6031.632119209,4091.28076171875,1116.4835205078125
6031.633291546,4091.28076171875,1118.6812744140625
6031.665937474,4098.72607421875,1120.146484375
6031.666922846,4098.72607421875,1117.216064453125
6031.699757888,4091.28076171875,1116.4835205078125
6031.705746568,4098.72607421875,1118.6812744140625
6031.738412583,4091.28076171875,1116.4835205078125
6031.796004772,4091.28076171875,1119.4139404296875
6031.797222902,4098.72607421875,1120.879150390625
6031.798367765,4098.72607421875,1117.94873046875
6031.830829972,4091.28076171875,1115.7509765625
6031.832000423,4098.72607421875,1118.6812744140625
6031.864757279,4091.28076171875,1116.4835205078125
6031.865964739,4098.72607421875,1118.6812744140625
6031.898653295,4098.72607421875,1116.4835205078125
6031.930930822,4098.72607421875,1115.7509765625
6031.932262368,4098.72607421875,1115.7509765625
6031.964743373,4098.72607421875,1115.018310546875
6031.969556541,4098.72607421875,1114.2857666015625
6032.002042579,4098.72607421875,1115.018310546875
6032.034926837,4098.72607421875,1115.018310546875
6032.03572896,4098.72607421875,1114.2857666015625
6032.107115522,4091.28076171875,1114.2857666015625
6032.108646703,4098.72607421875,1118.6812744140625
6032.109524291,4098.72607421875,1116.4835205078125
6032.111120386,4091.28076171875,1115.7509765625
6032.143421639,4098.72607421875,1118.6812744140625
6032.172050525,4098.72607421875,1116.4835205078125
6032.173338662,4098.72607421875,1115.7509765625
6032.206082582,4091.28076171875,1115.7509765625
6032.207054781,4098.72607421875,1118.6812744140625
6032.239747405,4098.72607421875,1116.4835205078125
6032.272202761,4098.72607421875,1115.7509765625
6032.273326422,4098.72607421875,1115.018310546875
6032.306109483,4091.28076171875,1115.018310546875
6032.306977808,4098.72607421875,1118.6812744140625
6032.393565385,4098.72607421875,1116.4835205078125
6032.394910961,4098.72607421875,1115.7509765625
6032.396077679,4098.72607421875,1115.018310546875
6032.397153004,4098.72607421875,1115.018310546875
6032.422369772,4098.72607421875,1115.018310546875
6032.429669208,4098.72607421875,1115.018310546875
6032.462371296,4098.72607421875,1115.018310546875
6032.49478295,4098.72607421875,1115.7509765625
6032.495820185,4098.72607421875,1115.018310546875
6032.52862602,4098.72607421875,1115.018310546875
6032.52961573,4098.72607421875,1115.018310546875
6032.562381459,4098.72607421875,1115.018310546875
6032.567352185,4106.19873046875,1115.018310546875
6032.599675146,4106.19873046875,1115.7509765625
6032.632398398,4106.19873046875,1115.7509765625
6032.633702221,4106.19873046875,1115.7509765625
6032.706153676,4098.72607421875,1115.7509765625
6032.707442611,4098.72607421875,1115.018310546875
6032.708678304,4106.19873046875,1115.018310546875
6032.70966011,4098.72607421875,1115.7509765625
6032.742184004,4098.72607421875,1115.018310546875
6032.774900809,4098.72607421875,1115.018310546875
6032.776211136,4106.19873046875,1114.2857666015625
6032.81218379,4113.69873046875,1115.018310546875
6032.813312379,4136.36376953125,1112.087890625
6032.846118535,4198.04296875,1107.6922607421875
6032.847127958,4269.66845703125,1094.5054931640625
6032.87990426,4335.41845703125,1073.2601318359375
6032.912365633,4352.173828125,1052.0146484375
6032.913365671,4360.60009765625,1038.09521484375
6032.946138282,4369.05908203125,1032.234375
6032.947357562,4411.85107421875,1026.3736572265625
6032.997394115,4394.63427734375,1016.8497924804688
6032.998690799,4369.05908203125,1017.5823974609375
6033.031258563,4343.7802734375,1019.047607421875
6033.032174046,4327.08935546875,1026.3736572265625
6033.064745059,4310.5263671875,1032.967041015625
6033.066238102,4285.91796875,1038.09521484375
6033.098648744,4269.66845703125,1042.4908447265625
6033.13107865,4245.52294921875,1048.3516845703125
6033.132078649,4237.53515625,1056.4102783203125
6033.164766867,4221.6494140625,1060.805908203125
6033.165927679,4213.7509765625,1064.4688720703125
6033.198620787,4198.04296875,1068.864501953125
6033.231257905,4190.232421875,1075.4578857421875
6033.23209643,4182.451171875,1076.923095703125
6033.302266943,4159.27978515625,1081.3187255859375
6033.303332786,4159.27978515625,1085.7142333984375
6033.30459265,4143.97412109375,1087.179443359375
6033.305825777,4106.19873046875,1093.040283203125
6033.338380469,4047.169921875,1105.4945068359375
6033.371124289,4025.46923828125,1124.5421142578125
6033.372174974,4025.46923828125,1136.996337890625
6033.404868723,4004.0,1142.857177734375
6033.406100032,4004.0,1150.18310546875
6033.452228301,4011.130859375,1153.84619140625
6033.4533831,4011.130859375,1152.3809814453125
6033.486111134,4004.0,1151.6483154296875
6033.487098758,4011.130859375,1155.3114013671875
6033.519884444,4004.0,1153.113525390625
6033.552183804,3996.89453125,1155.3114013671875
6033.55331975,4004.0,1157.5091552734375
6033.60100761,3996.89453125,1158.24169921875
6033.602021392,3989.81396484375,1158.974365234375
6033.634867045,3989.81396484375,1163.3699951171875
6033.635852258,3989.81396484375,1164.835205078125
6033.668615256,3989.81396484375,1165.5677490234375
6033.670077848,3989.81396484375,1166.3004150390625
6033.702185264,3989.81396484375,1167.032958984375
6033.707091245,3989.81396484375,1167.032958984375
6033.739654889,3989.81396484375,1167.032958984375
6033.772230789,3989.81396484375,1167.032958984375
6033.773354266,3982.758544921875,1167.032958984375
6033.805874719,3982.758544921875,1162.6373291015625
6033.807127034,3975.728271484375,1161.172119140625
6033.839849733,3975.728271484375,1164.1025390625
6033.903532932,3968.722412109375,1164.835205078125
6033.904892859,3975.728271484375,1167.032958984375
6033.906188869,3975.728271484375,1166.3004150390625
6033.90713514,3975.728271484375,1166.3004150390625
6033.939653059,3982.758544921875,1166.3004150390625
6033.940804419,3982.758544921875,1162.6373291015625
6033.973616837,3975.728271484375,1161.172119140625
6034.006006139,3975.728271484375,1163.3699951171875
6034.007105799,3975.728271484375,1164.835205078125
6034.039735923,3982.758544921875,1165.5677490234375
6034.092355887,3975.728271484375,1162.6373291015625
6034.093399976,3982.758544921875,1164.835205078125
6034.094572962,3982.758544921875,1161.90478515625
6034.127204658,3982.758544921875,1160.4395751953125
6034.128335104,3982.758544921875,1159.7069091796875
6034.196148474,3982.758544921875,1159.7069091796875
6034.197156354,3975.728271484375,1159.7069091796875
6034.198317313,3975.728271484375,1163.3699951171875
6034.231631705,3968.722412109375,1164.835205078125
6034.232081667,3975.728271484375,1166.3004150390625
6034.264749753,3975.728271484375,1166.3004150390625
6034.26596074,3968.722412109375,1166.3004150390625
6034.29839488,3975.728271484375,1167.765625
6034.330910848,3975.728271484375,1166.3004150390625
6034.332906756,3968.722412109375,1166.3004150390625
6034.364979839,3968.722412109375,1167.765625
6034.365892842,3968.722412109375,1167.765625
6034.398467662,3961.741455078125,1167.765625
6034.430908082,3961.741455078125,1172.1611328125
6034.432104029,3961.741455078125,1173.6263427734375
6034.492381367,3961.741455078125,1174.3590087890625
6034.493362793,3961.741455078125,1175.091552734375
6034.494491233,3961.741455078125,1174.3590087890625
6034.527187311,3961.741455078125,1175.091552734375
6034.528337954,3961.741455078125,1175.091552734375
6034.5611178,3961.741455078125,1175.091552734375
6034.593544169,3961.741455078125,1175.091552734375
6034.594624369,3961.741455078125,1174.3590087890625
6034.627402476,3954.784912109375,1175.091552734375
6034.62835507,3961.741455078125,1173.6263427734375
6034.661130786,3961.741455078125,1174.3590087890625
6034.668596722,3954.784912109375,1175.091552734375
6034.70113936,3954.784912109375,1173.6263427734375
6034.7323967,3961.741455078125,1172.893798828125
6034.733445876,3961.741455078125,1174.3590087890625
6034.791158732,3954.784912109375,1174.3590087890625
6034.792437007,3961.741455078125,1173.6263427734375
6034.793430521,3954.784912109375,1174.3590087890625
6034.825936491,3954.784912109375,1172.893798828125
6034.827084926,3961.741455078125,1172.893798828125
6034.859857787,3961.741455078125,1174.3590087890625
6034.892236474,3961.741455078125,1174.3590087890625
6034.893343622,3954.784912109375,1175.091552734375
6034.926040272,3954.784912109375,1173.6263427734375
6034.927106045,3961.741455078125,1172.893798828125
6034.959879677,3954.784912109375,1174.3590087890625
6034.967384297,3947.852783203125,1173.6263427734375
6034.999887329,3954.784912109375,1176.5567626953125
6035.032190831,3954.784912109375,1174.3590087890625
6035.033400374,3954.784912109375,1173.6263427734375
6035.097320263,3940.94482421875,1172.893798828125
6035.098352008,3947.852783203125,1177.2894287109375
6035.099574594,3947.852783203125,1178.754638671875
6035.107411548,3947.852783203125,1178.754638671875
6035.139657182,3940.94482421875,1179.4871826171875
6035.144726745,3940.94482421875,1180.2197265625
6035.17711679,3940.94482421875,1180.952392578125
6035.209805307,3940.94482421875,1180.952392578125
6035.211195805,3934.06103515625,1181.6849365234375
6035.243537248,3934.06103515625,1184.6153564453125
6035.244645,3934.06103515625,1186.813232421875
6035.277413297,3940.94482421875,1187.5457763671875
6035.30970177,3934.06103515625,1184.6153564453125
6035.310818068,3934.06103515625,1186.08056640625
6035.343399815,3934.06103515625,1186.813232421875
6035.404767286,3934.06103515625,1188.2784423828125
6035.405839809,3934.06103515625,1188.2784423828125
6035.407078486,3934.06103515625,1188.2784423828125
6035.408494273,3934.06103515625,1188.2784423828125
6035.440886148,3940.94482421875,1188.2784423828125
6035.442067263,3934.06103515625,1184.6153564453125
6035.474880734,3934.06103515625,1186.813232421875
6035.507370076,3934.06103515625,1187.5457763671875
6035.508410511,3934.06103515625,1188.2784423828125
6035.541223463,3934.06103515625,1187.5457763671875
6035.54209823,3927.201416015625,1188.2784423828125
6035.574866404,3934.06103515625,1186.813232421875
6035.607367817,3927.201416015625,1187.5457763671875
6035.608375573,3934.06103515625,1186.813232421875
6035.641178364,3927.201416015625,1187.5457763671875
6035.648378815,3927.201416015625,1186.813232421875
6035.693397826,3927.201416015625,1186.08056640625
6035.694680849,3927.201416015625,1186.08056640625
6035.727394808,3934.06103515625,1186.08056640625
6035.728386777,3934.06103515625,1187.5457763671875
6035.76117795,3927.201416015625,1188.2784423828125
6035.766118999,3927.201416015625,1186.813232421875
6035.798382707,3934.06103515625,1186.08056640625
6035.831108386,3927.201416015625,1187.5457763671875
6035.832191596,3927.201416015625,1186.08056640625
6035.864763867,3927.201416015625,1186.08056640625
6035.865872025,3920.365478515625,1186.08056640625
6035.898673185,3927.201416015625,1189.7435302734375
6035.90338132,3920.365478515625,1187.5457763671875
6035.935963117,3920.365478515625,1189.7435302734375
6036.008383119,3920.365478515625,1191.208740234375
6036.009615932,3920.365478515625,1191.94140625
6036.010820297,3920.365478515625,1191.94140625
6036.027221379,3920.365478515625,1192.6739501953125
6036.028380493,3920.365478515625,1192.6739501953125
6036.06193974,3920.365478515625,1191.94140625
6036.09382693,3920.365478515625,1192.6739501953125
6036.09491198,3920.365478515625,1192.6739501953125
6036.127196161,3920.365478515625,1192.6739501953125
6036.128355343,3920.365478515625,1192.6739501953125
6036.160976745,3913.553466796875,1192.6739501953125
6036.193454337,3920.365478515625,1193.4066162109375
6036.194598585,3920.365478515625,1192.6739501953125
6036.227375569,3913.553466796875,1192.6739501953125
6036.228369673,3920.365478515625,1193.4066162109375
6036.290966628,3913.553466796875,1192.6739501953125
6036.292084111,3920.365478515625,1193.4066162109375
6036.293405036,3913.553466796875,1193.4066162109375
6036.325954897,3913.553466796875,1193.4066162109375
6036.327460608,3913.553466796875,1194.13916015625
6036.361362658,3913.553466796875,1194.13916015625
6036.361518559,3913.553466796875,1194.13916015625
6036.393504601,3913.553466796875,1194.13916015625
6036.426162087,3913.553466796875,1194.13916015625
6036.427153361,3906.764892578125,1194.871826171875
6036.452322261,3913.553466796875,1197.80224609375
6036.484806128,3906.764892578125,1196.3370361328125
6036.485875389,3913.553466796875,1199.2674560546875
6036.51845556,3913.553466796875,1196.3370361328125
6036.523363758,3913.553466796875,1195.6043701171875
6036.556043403,3913.553466796875,1194.871826171875
6036.594647951,3906.764892578125,1194.871826171875
6036.595828468,3906.764892578125,1197.80224609375
6036.65239247,3906.764892578125,1200.0
6036.653720756,3906.764892578125,1200.7325439453125
6036.654590585,3913.553466796875,1200.7325439453125
6036.6878482,3913.553466796875,1197.069580078125
6036.68849269,3913.553466796875,1195.6043701171875
6036.720922652,3913.553466796875,1194.871826171875
6036.722066179,3906.764892578125,1195.6043701171875
6036.754875888,3906.764892578125,1198.5347900390625
6036.787365645,3906.764892578125,1199.2674560546875
6036.788429456,3906.764892578125,1200.7325439453125
6036.821122574,3906.764892578125,1200.7325439453125
6036.822133584,3913.553466796875,1201.4652099609375
6036.854946096,3913.553466796875,1197.80224609375
6036.896165093,3913.553466796875,1195.6043701171875
6036.897649694,3913.553466796875,1195.6043701171875
6036.929898124,3906.764892578125,1194.871826171875
6036.931186959,3913.553466796875,1198.5347900390625
6036.963548028,3913.553466796875,1196.3370361328125
6036.968674365,3913.553466796875,1195.6043701171875
6037.00095357,3906.764892578125,1194.871826171875
6037.002038396,3906.764892578125,1198.5347900390625
6037.035022503,3913.553466796875,1200.0
6037.067298413,3906.764892578125,1197.069580078125
6037.068263526,3913.553466796875,1199.2674560546875
6037.101376832,3906.764892578125,1197.069580078125
6037.133767029,3913.553466796875,1199.2674560546875
6037.135076164,3913.553466796875,1197.069580078125
6037.200079134,3900.0,1195.6043701171875
6037.201162597,3913.553466796875,1197.069580078125
6037.202284693,3906.764892578125,1195.6043701171875
6037.20369514,3906.764892578125,1198.5347900390625
6037.236017702,3913.553466796875,1200.0
6037.292327802,3913.553466796875,1197.069580078125
6037.293665696,3913.553466796875,1195.6043701171875
6037.294568077,3906.764892578125,1195.6043701171875
6037.327831376,3906.764892578125,1198.5347900390625
6037.32848888,3906.764892578125,1200.0
6037.361292094,3906.764892578125,1201.4652099609375
6037.362265074,3906.764892578125,1200.7325439453125
6037.394999458,3913.553466796875,1200.7325439453125
6037.427502428,3900.0,1197.80224609375
6037.428742728,3913.553466796875,1198.5347900390625
6037.49225571,3906.764892578125,1196.3370361328125
6037.493523448,3906.764892578125,1199.2674560546875
6037.494557964,3906.764892578125,1200.0
6037.52726724,3900.0,1200.7325439453125
6037.528533919,3906.764892578125,1200.0
6037.56126673,3913.553466796875,1200.7325439453125
6037.562566885,3906.764892578125,1197.80224609375
6037.594990915,3906.764892578125,1199.2674560546875
6037.627514127,3906.764892578125,1200.7325439453125
6037.628525645,3906.764892578125,1201.4652099609375
6037.661246998,3906.764892578125,1201.4652099609375
6037.667313137,3913.553466796875,1201.4652099609375
6037.699787519,3906.764892578125,1197.80224609375
6037.704967026,3913.553466796875,1199.2674560546875
6037.737269434,3913.553466796875,1197.069580078125
6037.799932878,3906.764892578125,1195.6043701171875
6037.800988081,3913.553466796875,1198.5347900390625
6037.80224468,3906.764892578125,1196.3370361328125
6037.80373201,3913.553466796875,1199.2674560546875
6037.836041004,3913.553466796875,1196.3370361328125
6037.868740335,3906.764892578125,1195.6043701171875
6037.87007159,3913.553466796875,1198.5347900390625
6037.902513871,3913.553466796875,1196.3370361328125
6037.90349848,3913.553466796875,1195.6043701171875
6037.932375168,3913.553466796875,1194.871826171875
6037.965000274,3906.764892578125,1194.871826171875
6037.966035006,3913.553466796875,1198.5347900390625
6037.998746854,3913.553466796875,1195.6043701171875
6038.003529462,3906.764892578125,1195.6043701171875
6038.036273355,3913.553466796875,1198.5347900390625
6038.098734932,3913.553466796875,1196.3370361328125
6038.099810727,3906.764892578125,1195.6043701171875
6038.101366066,3913.553466796875,1198.5347900390625
6038.102261918,3906.764892578125,1197.069580078125
6038.134794507,3913.553466796875,1199.2674560546875
6038.167482099,3913.553466796875,1197.069580078125
6038.168529965,3913.553466796875,1195.6043701171875
6038.201104221,3913.553466796875,1194.871826171875
6038.206055643,3913.553466796875,1194.871826171875
6038.238537228,3913.553466796875,1194.871826171875
6038.271315357,3913.553466796875,1194.871826171875
6038.272201301,3913.553466796875,1194.871826171875
6038.305006192,3920.365478515625,1194.13916015625
6038.306016031,3913.553466796875,1193.4066162109375
6038.3385746,3920.365478515625,1194.13916015625
6038.346088786,3913.553466796875,1193.4066162109375
6038.404845599,3920.365478515625,1194.13916015625
6038.406032272,3920.365478515625,1193.4066162109375
6038.407167856,3920.365478515625,1193.4066162109375
6038.439901351,3913.553466796875,1192.6739501953125
6038.444782973,3913.553466796875,1193.4066162109375
6038.477520236,3913.553466796875,1194.13916015625
6038.509930592,3906.764892578125,1194.13916015625
6038.511111602,3920.365478515625,1197.80224609375
6038.543785163,3913.553466796875,1194.871826171875
6038.544744701,3913.553466796875,1194.871826171875
6038.572338529,3913.553466796875,1194.871826171875
6038.60484851,3913.553466796875,1194.871826171875
6038.606018976,3913.553466796875,1194.871826171875
6038.638615765,3913.553466796875,1194.871826171875
6038.643487925,3913.553466796875,1194.13916015625
6038.693722079,3920.365478515625,1194.13916015625
6038.694636508,3913.553466796875,1193.4066162109375
6038.727511873,3913.553466796875,1194.871826171875
6038.728514202,3913.553466796875,1194.13916015625
6038.761180185,3913.553466796875,1194.13916015625
6038.762165596,3913.553466796875,1194.871826171875
6038.795009043,3913.553466796875,1194.13916015625
6038.827455022,3906.764892578125,1194.871826171875
6038.828493756,3913.553466796875,1197.80224609375
6038.861269988,3913.553466796875,1196.3370361328125
6038.868588807,3913.553466796875,1195.6043701171875
6038.901044039,3913.553466796875,1194.871826171875
6038.933778656,3913.553466796875,1194.871826171875
6038.935061314,3913.553466796875,1194.13916015625
6038.997415359,3913.553466796875,1194.871826171875
6038.998450919,3906.764892578125,1194.871826171875
6038.99972756,3920.365478515625,1198.5347900390625
6039.032359017,3913.553466796875,1195.6043701171875
6039.033457592,3913.553466796875,1194.871826171875
6039.066256074,3913.553466796875,1194.871826171875
6039.067580176,3913.553466796875,1194.871826171875
6039.099906894,3913.553466796875,1194.871826171875
6039.101245118,3913.553466796875,1194.871826171875
6039.133798383,3913.553466796875,1194.871826171875
6039.16627383,3906.764892578125,1194.13916015625
6039.167581748,3913.553466796875,1198.5347900390625
6039.212389891,3913.553466796875,1196.3370361328125
6039.213531599,3913.553466796875,1195.6043701171875
6039.246100487,3906.764892578125,1194.871826171875
6039.247229772,3913.553466796875,1198.5347900390625
6039.297341413,3906.764892578125,1196.3370361328125
6039.298408946,3913.553466796875,1199.2674560546875
6039.306003282,3913.553466796875,1196.3370361328125
6039.338784718,3913.553466796875,1195.6043701171875
6039.346293598,3913.553466796875,1194.871826171875
6039.37853963,3906.764892578125,1195.6043701171875
6039.41127507,3906.764892578125,1198.5347900390625
6039.412349768,3906.764892578125,1200.0
6039.444993094,3906.764892578125,1200.7325439453125
6039.446029334,3906.764892578125,1201.4652099609375
6039.478763746,3906.764892578125,1201.4652099609375
6039.511165016,3906.764892578125,1201.4652099609375
6039.512209862,3906.764892578125,1201.4652099609375
6039.545064334,3893.258544921875,1201.4652099609375
6039.546004746,3900.0,1203.6629638671875
6039.599956134,3906.764892578125,1201.4652099609375
6039.601440701,3906.764892578125,1201.4652099609375
6039.602244589,3900.0,1201.4652099609375
6039.634941387,3900.0,1200.0
6039.667415245,3900.0,1199.2674560546875
6039.668461119,3900.0,1199.2674560546875
6039.701257562,3893.258544921875,1199.2674560546875
6039.708636976,3900.0,1202.930419921875
6039.741035004,3893.258544921875,1200.7325439453125
6039.742339483,3900.0,1202.930419921875
6039.774940758,3893.258544921875,1201.4652099609375
6039.80750978,3893.258544921875,1203.6629638671875
6039.80854284,3893.258544921875,1205.128173828125
6039.852462998,3893.258544921875,1205.128173828125
6039.853525991,3893.258544921875,1206.5933837890625
6039.896280428,3893.258544921875,1205.128173828125
6039.897596244,3893.258544921875,1205.86083984375
6039.900148444,3893.258544921875,1205.86083984375
6039.932311869,3893.258544921875,1205.86083984375
6039.96503046,3886.5400390625,1206.5933837890625
6039.966372515,3886.5400390625,1207.3260498046875
6039.998706832,3886.5400390625,1207.3260498046875
6040.031149561,3893.258544921875,1208.05859375
6040.032647914,3886.5400390625,1206.5933837890625
6040.065027304,3886.5400390625,1207.3260498046875
6040.066033991,3886.5400390625,1207.3260498046875
6040.098743719,3886.5400390625,1207.3260498046875
6040.10500496,3886.5400390625,1208.05859375
6040.137258257,3886.5400390625,1208.05859375
6040.193788653,3879.844970703125,1208.05859375
6040.195191733,3879.844970703125,1211.7215576171875
6040.196000202,3879.844970703125,1213.186767578125
6040.228878322,3879.844970703125,1213.91943359375
6040.229756943,3879.844970703125,1214.6519775390625
6040.262406537,3879.844970703125,1214.6519775390625
6040.263743157,3879.844970703125,1214.6519775390625
6040.29626138,3879.844970703125,1215.3846435546875
6040.32870455,3879.844970703125,1214.6519775390625
6040.334752913,3879.844970703125,1214.6519775390625
6040.367316013,3879.844970703125,1214.6519775390625
6040.368417812,3873.1728515625,1214.6519775390625
6040.401078013,3879.844970703125,1213.186767578125
6040.402157766,3879.844970703125,1214.6519775390625
6040.434994882,3873.1728515625,1214.6519775390625
6040.506091994,3879.844970703125,1213.186767578125
6040.507220681,3873.1728515625,1213.91943359375
6040.508520388,3873.1728515625,1213.186767578125
6040.533532181,3873.1728515625,1212.4542236328125
6040.534706277,3873.1728515625,1212.4542236328125
6040.547268966,3866.523681640625,1211.7215576171875
6040.580018312,3866.523681640625,1215.3846435546875
6040.581022908,3873.1728515625,1217.5823974609375
6040.613725897,3873.1728515625,1214.6519775390625
6040.646234204,3866.523681640625,1213.91943359375
6040.647626443,3866.523681640625,1216.849853515625
6040.68001334,3866.523681640625,1217.5823974609375
6040.681436446,3866.523681640625,1218.3150634765625
6040.713789511,3866.523681640625,1219.047607421875
6040.74625662,3859.897216796875,1218.3150634765625
6040.752373381,3866.523681640625,1220.5128173828125
6040.79988228,3866.523681640625,1219.047607421875
6040.800899405,3866.523681640625,1219.7802734375
6040.808886019,3866.523681640625,1219.047607421875
6040.841133948,3866.523681640625,1219.047607421875
6040.842338757,3866.523681640625,1219.047607421875
6040.874985767,3866.523681640625,1219.047607421875
6040.907646119,3866.523681640625,1219.047607421875
6040.908797899,3866.523681640625,1219.047607421875
6040.941054793,3859.897216796875,1219.047607421875
6040.942378711,3866.523681640625,1220.5128173828125
6040.975193804,3866.523681640625,1219.7802734375
6040.979786504,3866.523681640625,1219.7802734375
6041.012434881,3866.523681640625,1219.047607421875
6041.044843793,3866.523681640625,1219.047607421875
6041.045931379,3873.1728515625,1219.047607421875
6041.096248085,3866.523681640625,1216.1171875
6041.09734658,3866.523681640625,1217.5823974609375
6041.13243479,3866.523681640625,1218.3150634765625
6041.133538133,3866.523681640625,1218.3150634765625
6041.167605249,3866.523681640625,1218.3150634765625
6041.168518394,3873.1728515625,1219.047607421875
6041.20119332,3866.523681640625,1215.3846435546875
6041.202330706,3873.1728515625,1217.5823974609375
6041.235006173,3866.523681640625,1214.6519775390625
6041.267615287,3866.523681640625,1216.849853515625
6041.26844318,3866.523681640625,1218.3150634765625
6041.301205587,3866.523681640625,1218.3150634765625
6041.302322443,3866.523681640625,1219.047607421875
6041.334954011,3866.523681640625,1219.047607421875
6041.39242944,3873.1728515625,1219.047607421875
6041.393403388,3873.1728515625,1215.3846435546875
6041.394914759,3866.523681640625,1213.91943359375
6041.427519868,3859.897216796875,1216.1171875
6041.428467592,3873.1728515625,1219.047607421875
6041.461259952,3873.1728515625,1215.3846435546875
6041.462660409,3873.1728515625,1213.91943359375
6041.494863917,3873.1728515625,1213.186767578125
6041.502639349,3873.1728515625,1212.4542236328125
6041.534789906,3873.1728515625,1212.4542236328125
6041.56761042,3873.1728515625,1212.4542236328125
6041.568484494,3873.1728515625,1212.4542236328125
6041.601261036,3866.523681640625,1212.4542236328125
6041.602703632,3873.1728515625,1216.1171875
6041.634988949,3873.1728515625,1213.91943359375
6041.639735095,3873.1728515625,1213.186767578125
6041.693762126,3873.1728515625,1213.186767578125
6041.694767518,3873.1728515625,1213.186767578125
6041.727475569,3873.1728515625,1211.7215576171875
6041.728500713,3866.523681640625,1212.4542236328125
6041.772422003,3866.523681640625,1215.3846435546875
6041.773407816,3866.523681640625,1215.3846435546875
6041.806271428,3866.523681640625,1318.6812744140625
6041.807699094,3873.1728515625,1266.6666259765625
6041.840063251,3866.523681640625,1238.09521484375
6041.841010987,3873.1728515625,1227.8388671875
6041.873739924,3866.523681640625,1220.5128173828125
6041.906243179,3873.1728515625,1219.7802734375
6041.907423159,3873.1728515625,1216.1171875
6041.940018393,3873.1728515625,1213.91943359375
