timestamp,GSR,PPG
6240.407598538,3074.744140625,1029.3040771484375
6240.408579832,3070.55224609375,1029.3040771484375
6240.441290027,3074.744140625,1027.106201171875
6240.473918595,3066.37158203125,1028.5714111328125
6240.474929036,3070.55224609375,1030.03662109375
6240.507699535,3070.55224609375,1027.106201171875
6240.512387162,3070.55224609375,1026.3736572265625
6240.544913502,3070.55224609375,1025.6409912109375
6240.611233779,3066.37158203125,1024.908447265625
6240.612267804,3066.37158203125,1027.8388671875
6240.613792192,3066.37158203125,1029.3040771484375
6240.615200401,3066.37158203125,1030.769287109375
6240.647409631,3066.37158203125,1030.03662109375
6240.648507668,3066.37158203125,1030.769287109375
6240.681244894,3062.20263671875,1031.5018310546875
6240.71373323,3062.20263671875,1030.769287109375
6240.714804323,3062.20263671875,1031.5018310546875
6240.747610836,3062.20263671875,1032.234375
6240.748581264,3062.20263671875,1031.5018310546875
6240.781377324,3066.37158203125,1031.5018310546875
6240.817836216,3062.20263671875,1031.5018310546875
6240.818563053,3062.20263671875,1031.5018310546875
6240.85136574,3062.20263671875,1032.234375
6240.894940833,3058.044921875,1031.5018310546875
6240.896131386,3062.20263671875,1035.164794921875
6240.897413958,3062.20263671875,1032.967041015625
6240.929884891,3058.044921875,1032.967041015625
6240.931074673,3062.20263671875,1035.164794921875
6240.963860917,3062.20263671875,1033.6995849609375
6240.996182188,3058.044921875,1032.967041015625
6240.997461558,3058.044921875,1035.164794921875
6241.030139889,3062.20263671875,1036.6300048828125
6241.031472613,3058.044921875,1034.4322509765625
6241.063865095,3062.20263671875,1036.6300048828125
6241.068884032,3062.20263671875,1034.4322509765625
6241.101153921,3062.20263671875,1032.967041015625
6241.133913157,3062.20263671875,1032.967041015625
6241.135210797,3066.37158203125,1032.234375
6241.198889585,3066.37158203125,1031.5018310546875
6241.199903968,3070.55224609375,1031.5018310546875
6241.201068911,3070.55224609375,1027.8388671875
6241.23416123,3070.55224609375,1026.3736572265625
6241.234878203,3074.744140625,1025.6409912109375
6241.2675339,3070.55224609375,1027.106201171875
6241.272654999,3066.37158203125,1025.6409912109375
6241.304936535,3070.55224609375,1028.5714111328125
6241.312643674,3066.37158203125,1026.3736572265625
6241.344924617,3066.37158203125,1028.5714111328125
6241.377385551,3062.20263671875,1030.03662109375
6241.378513132,3062.20263671875,1031.5018310546875
6241.411413679,3058.044921875,1031.5018310546875
6241.412328555,3058.044921875,1035.164794921875
6241.457607555,3058.044921875,1036.6300048828125
6241.458676842,3058.044921875,1037.3626708984375
6241.503343819,3058.044921875,1037.3626708984375
6241.503448602,3058.044921875,1037.3626708984375
6241.536451654,3062.20263671875,1037.3626708984375
6241.537461012,3062.20263671875,1034.4322509765625
6241.569967563,3066.37158203125,1032.967041015625
6241.571071758,3070.55224609375,1032.234375
6241.604007269,3066.37158203125,1028.5714111328125
6241.636503434,3066.37158203125,1030.03662109375
6241.637715161,3066.37158203125,1030.769287109375
6241.670260024,3066.37158203125,1030.769287109375
6241.671115839,3070.55224609375,1030.769287109375
6241.703994281,3070.55224609375,1027.8388671875
6241.708831241,3070.55224609375,1026.3736572265625
6241.741262278,3070.55224609375,1025.6409912109375
6241.793863395,3070.55224609375,1025.6409912109375
6241.7953199,3074.744140625,1025.6409912109375
6241.796310599,3074.744140625,1027.8388671875
6241.828835038,3070.55224609375,1028.5714111328125
6241.830031419,3074.744140625,1027.106201171875
6241.865258108,3074.744140625,1027.8388671875
6241.866117271,3083.162109375,1032.967041015625
6241.898780088,3095.876220703125,1030.769287109375
6241.931235587,3095.876220703125,1022.7106323242188
6241.932349121,3100.1376953125,1019.047607421875
6241.965017686,3100.1376953125,1015.3846435546875
6241.997544501,3074.744140625,1011.7216186523438
6241.998545671,3070.55224609375,1019.7802124023438
6242.032416153,3070.55224609375,1021.2454223632812
6242.03366711,3074.744140625,1023.4432373046875
6242.106302384,3074.744140625,1025.6409912109375
6242.107448429,3074.744140625,1027.8388671875
6242.108703615,3074.744140625,1028.5714111328125
6242.127506984,3070.55224609375,1028.5714111328125
6242.133768482,3074.744140625,1026.3736572265625
6242.166570818,3074.744140625,1027.8388671875
6242.167835536,3070.55224609375,1028.5714111328125
6242.200185397,3070.55224609375,1026.3736572265625
6242.232743611,3066.37158203125,1024.908447265625
6242.233757696,3070.55224609375,1027.8388671875
6242.266488637,3070.55224609375,1026.3736572265625
6242.271247482,3066.37158203125,1025.6409912109375
6242.304005287,3066.37158203125,1028.5714111328125
6242.336517708,3070.55224609375,1029.3040771484375
6242.337836652,3066.37158203125,1027.106201171875
6242.397594313,3062.20263671875,1028.5714111328125
6242.398770142,3066.37158203125,1030.769287109375
6242.400370172,3066.37158203125,1030.769287109375
6242.432624158,3062.20263671875,1030.769287109375
6242.433764766,3066.37158203125,1031.5018310546875
6242.466441818,3066.37158203125,1030.769287109375
6242.473907107,3062.20263671875,1031.5018310546875
6242.506250778,3066.37158203125,1031.5018310546875
6242.507555803,3062.20263671875,1030.769287109375
6242.540090572,3062.20263671875,1031.5018310546875
6242.57259823,3058.044921875,1031.5018310546875
6242.573690138,3062.20263671875,1035.164794921875
6242.60641186,3062.20263671875,1032.967041015625
6242.611266233,3062.20263671875,1032.234375
6242.643809017,3062.20263671875,1032.234375
6242.644897956,3062.20263671875,1032.234375
6242.707654959,3062.20263671875,1031.5018310546875
6242.708711319,3062.20263671875,1032.234375
6242.709971088,3062.20263671875,1031.5018310546875
6242.737634348,3066.37158203125,1032.234375
6242.77036649,3062.20263671875,1031.5018310546875
6242.772438603,3066.37158203125,1031.5018310546875
6242.805025282,3066.37158203125,1031.5018310546875
6242.806260603,3066.37158203125,1030.769287109375
6242.838808969,3066.37158203125,1030.769287109375
6242.871507686,3066.37158203125,1030.769287109375
6242.872519368,3062.20263671875,1030.769287109375
6242.905056805,3062.20263671875,1031.5018310546875
6242.912682167,3062.20263671875,1031.5018310546875
6242.946677861,3066.37158203125,1031.5018310546875
6243.000363679,3062.20263671875,1031.5018310546875
6243.002833109,3062.20263671875,1031.5018310546875
6243.002926568,3058.044921875,1031.5018310546875
6243.035256389,3062.20263671875,1035.164794921875
6243.036489654,3062.20263671875,1032.967041015625
6243.068972138,3058.044921875,1032.967041015625
6243.070012227,3058.044921875,1035.164794921875
6243.102886282,3058.044921875,1036.6300048828125
6243.135275199,3058.044921875,1037.3626708984375
6243.136625751,3053.898193359375,1037.3626708984375
6243.168962467,3058.044921875,1035.164794921875
6243.170047999,3053.898193359375,1036.6300048828125
6243.202653352,3053.898193359375,1035.164794921875
6243.236357484,3053.898193359375,1033.6995849609375
6243.237451422,3053.898193359375,1033.6995849609375
6243.299015368,3049.762939453125,1032.967041015625
6243.30032738,3049.762939453125,1036.6300048828125
6243.301259469,3049.762939453125,1037.3626708984375
6243.33381326,3045.638916015625,1038.09521484375
6243.334949455,3045.638916015625,1039.5604248046875
6243.377540847,3045.638916015625,1039.5604248046875
6243.378679905,3045.638916015625,1040.2930908203125
6243.411539844,3045.638916015625,1039.5604248046875
6243.412836917,3045.638916015625,1040.2930908203125
6243.44524524,3041.52587890625,1040.2930908203125
6243.450187074,3045.638916015625,1043.223388671875
6243.482549343,3041.52587890625,1041.025634765625
6243.490253616,3041.52587890625,1043.9560546875
6243.522571388,3037.424072265625,1045.4212646484375
6243.555033888,3037.424072265625,1043.223388671875
6243.556354455,3037.424072265625,1042.4908447265625
6243.601500068,3037.424072265625,1041.75830078125
6243.602520399,3037.424072265625,1041.75830078125
6243.605002925,3033.333251953125,1041.75830078125
6243.637516014,3033.333251953125,1044.6885986328125
6243.670149754,3025.1845703125,1046.15380859375
6243.671196395,3029.25341796875,1050.5494384765625
6243.703837665,3029.25341796875,1049.81689453125
6243.736266463,3029.25341796875,1049.084228515625
6243.737490589,3025.1845703125,1048.3516845703125
6243.770072818,3025.1845703125,1052.0146484375
6243.771270493,3025.1845703125,1053.4798583984375
6243.803872039,3025.1845703125,1054.21240234375
6243.804969481,3025.1845703125,1054.21240234375
6243.837631934,3021.126708984375,1054.21240234375
6243.901619827,3025.1845703125,1052.0146484375
6243.902459133,3025.1845703125,1053.4798583984375
6243.903698324,3025.1845703125,1054.21240234375
6243.936293272,3021.126708984375,1054.945068359375
6243.93745503,3021.126708984375,1052.0146484375
6243.970257496,3021.126708984375,1051.2821044921875
6243.971247797,3021.126708984375,1050.5494384765625
6244.017638625,3017.07958984375,1049.81689453125
6244.018687595,3017.07958984375,1053.4798583984375
6244.051271357,3017.07958984375,1054.21240234375
6244.05246083,3021.126708984375,1057.142822265625
6244.085234174,3017.07958984375,1055.6776123046875
6244.086237067,3013.04345703125,1054.945068359375
6244.118824943,3017.07958984375,1056.4102783203125
6244.151473453,3025.1845703125,1057.87548828125
6244.152547132,3041.52587890625,1058.6080322265625
6244.195147206,3041.52587890625,1052.7471923828125
6244.196202868,3041.52587890625,1049.81689453125
6244.228848441,3041.52587890625,1048.3516845703125
6244.229973675,3045.638916015625,1048.3516845703125
6244.262576573,3049.762939453125,1044.6885986328125
6244.268883204,3049.762939453125,1041.75830078125
6244.301274557,3049.762939453125,1041.025634765625
6244.334072173,3049.762939453125,1040.2930908203125
6244.334996894,3049.762939453125,1040.2930908203125
6244.367646682,3045.638916015625,1039.5604248046875
6244.368684461,3049.762939453125,1040.2930908203125
6244.401371758,3045.638916015625,1040.2930908203125
6244.433783437,3045.638916015625,1040.2930908203125
6244.434945756,3045.638916015625,1040.2930908203125
6244.498996893,3045.638916015625,1040.2930908203125
6244.500253214,3045.638916015625,1040.2930908203125
6244.50125492,3045.638916015625,1040.2930908203125
6244.533791652,3041.52587890625,1040.2930908203125
6244.534950782,3045.638916015625,1043.223388671875
6244.567544949,3041.52587890625,1041.75830078125
6244.568741072,3045.638916015625,1044.6885986328125
6244.601297098,3045.638916015625,1042.4908447265625
6244.609015782,3041.52587890625,1041.75830078125
6244.657672616,3045.638916015625,1043.9560546875
6244.659020191,3045.638916015625,1042.4908447265625
6244.691349728,3041.52587890625,1041.75830078125
6244.69271438,3045.638916015625,1044.6885986328125
6244.725202445,3041.52587890625,1042.4908447265625
6244.726254972,3037.424072265625,1044.6885986328125
6244.758922921,3037.424072265625,1043.223388671875
6244.798795834,3037.424072265625,1041.75830078125
6244.79992709,3037.424072265625,1041.75830078125
6244.832710015,3037.424072265625,1041.75830078125
6244.833698999,3037.424072265625,1041.75830078125
6244.866332047,3037.424072265625,1041.75830078125
6244.871511993,3037.424072265625,1041.75830078125
6244.90374986,3033.333251953125,1041.75830078125
6244.904914914,3033.333251953125,1044.6885986328125
6244.937724231,3033.333251953125,1046.15380859375
6244.969960468,3029.25341796875,1047.6190185546875
6244.971295369,3029.25341796875,1048.3516845703125
6245.003768119,3029.25341796875,1049.084228515625
6245.011390388,3029.25341796875,1049.084228515625
6245.043819968,3029.25341796875,1049.084228515625
6245.044949705,3025.1845703125,1049.81689453125
6245.099019126,3021.126708984375,1052.0146484375
6245.099989936,3021.126708984375,1051.2821044921875
6245.132568355,3021.126708984375,1051.2821044921875
6245.13371775,3021.126708984375,1050.5494384765625
6245.166272821,3017.07958984375,1050.5494384765625
6245.175047489,3017.07958984375,1053.4798583984375
6245.203744713,3017.07958984375,1055.6776123046875
6245.205138219,3013.04345703125,1055.6776123046875
6245.239001755,3013.04345703125,1056.4102783203125
6245.271450225,3013.04345703125,1057.142822265625
6245.272455834,3013.04345703125,1057.87548828125
6245.29884013,3013.04345703125,1057.87548828125
6245.331423305,3013.04345703125,1057.142822265625
6245.33250232,3013.04345703125,1057.87548828125
6245.393995135,3013.04345703125,1057.87548828125
6245.395015492,3013.04345703125,1057.87548828125
6245.396330255,3017.07958984375,1057.142822265625
6245.428797673,3021.126708984375,1057.142822265625
6245.430004133,3021.126708984375,1053.4798583984375
6245.462783855,3025.1845703125,1052.0146484375
6245.469970227,3037.424072265625,1053.4798583984375
6245.502490323,3058.044921875,1046.886474609375
6245.535272982,3083.162109375,1042.4908447265625
6245.536346077,3108.695556640625,1032.234375
6245.568876507,3121.62158203125,1180.2197265625
6245.569958629,3134.655517578125,1241.025634765625
6245.602572189,3130.298828125,1266.6666259765625
6245.635199585,3134.655517578125,1279.853515625
6245.636326789,3130.298828125,1284.981689453125
6245.697530999,3121.62158203125,1289.3773193359375
6245.698901608,3121.62158203125,1293.040283203125
6245.700007618,3117.301025390625,1295.238037109375
6245.73257702,3112.992431640625,1299.6336669921875
6245.733702939,3095.876220703125,1303.2967529296875
6245.766546458,3070.55224609375,1151.6483154296875
6245.771651993,3053.898193359375,1086.4468994140625
6245.803731817,3045.638916015625,1059.3406982421875
6245.811640847,3037.424072265625,1049.81689453125
6245.844035416,3033.333251953125,1046.15380859375
6245.845329333,3033.333251953125,1046.886474609375
6245.877666562,3033.333251953125,1047.6190185546875
6245.910363878,3029.25341796875,1047.6190185546875
6245.911387166,3029.25341796875,1048.3516845703125
6245.938985112,3025.1845703125,1049.084228515625
6246.005854334,3025.1845703125,1052.0146484375
6246.005943862,3025.1845703125,1053.4798583984375
6246.006014458,3021.126708984375,1054.21240234375
6246.006083285,3021.126708984375,1052.0146484375
6246.037606213,3021.126708984375,1051.2821044921875
6246.070001785,3017.07958984375,1050.5494384765625
6246.07131705,3013.04345703125,1054.21240234375
6246.10382712,3017.07958984375,1055.6776123046875
6246.11141415,3013.04345703125,1056.4102783203125
6246.143842118,3009.01806640625,1057.142822265625
6246.176617702,2989.051025390625,1060.805908203125
6246.177574365,2981.138427734375,1064.4688720703125
6246.210112948,2981.138427734375,1070.3297119140625
6246.212540419,2981.138427734375,1073.2601318359375
6246.245163974,2981.138427734375,1074.7252197265625
6246.24633755,2977.197509765625,1075.4578857421875
6246.304028378,2981.138427734375,1079.120849609375
6246.304901999,2981.138427734375,1077.6556396484375
6246.337851002,2981.138427734375,1076.923095703125
6246.338717478,2981.138427734375,1076.1904296875
6246.371415395,2977.197509765625,1075.4578857421875
6246.373752783,2977.197509765625,1079.853515625
6246.406425217,2973.267333984375,1080.5860595703125
6246.407534207,2977.197509765625,1079.853515625
6246.440363038,2973.267333984375,1081.3187255859375
6246.47252426,2969.347412109375,1079.853515625
6246.473693574,2965.437744140625,1081.3187255859375
6246.506415372,2965.437744140625,1084.2490234375
6246.507412885,2969.347412109375,1084.2490234375
6246.540273703,2965.437744140625,1084.2490234375
6246.610238213,2965.437744140625,1084.981689453125
6246.611382816,2961.53857421875,1084.981689453125
6246.612515112,2973.267333984375,1088.6446533203125
6246.615109671,2989.051025390625,1082.783935546875
6246.647666324,2989.051025390625,1074.7252197265625
6246.648647754,2989.051025390625,1071.794921875
6246.681440075,2973.267333984375,1069.5970458984375
6246.687492839,2953.7705078125,1073.99267578125
6246.720153072,2942.194580078125,1084.2490234375
6246.752628212,2938.356201171875,1090.842529296875
6246.75407592,2938.356201171875,1097.4359130859375
6246.78664478,2926.900634765625,1100.3663330078125
6246.791640646,2934.527587890625,1104.029296875
6246.824134775,2989.051025390625,1104.761962890625
6246.825202418,3005.00341796875,1084.981689453125
6246.857797196,3009.01806640625,1071.062255859375
6246.900149962,3005.00341796875,1067.3992919921875
6246.901296929,3009.01806640625,1063.7362060546875
6246.934154655,3005.00341796875,1063.7362060546875
6246.935442041,3005.00341796875,1060.805908203125
6246.967905909,3000.999267578125,1060.0732421875
6246.968952223,3005.00341796875,1063.003662109375
6247.007828339,3005.00341796875,1060.805908203125
6247.007923209,3005.00341796875,1060.0732421875
6247.035396782,3005.00341796875,1059.3406982421875
6247.067622022,3000.999267578125,1059.3406982421875
6247.068781537,3005.00341796875,1062.2711181640625
6247.101385914,3000.999267578125,1060.805908203125
6247.133932242,3000.999267578125,1063.003662109375
6247.135456146,3000.999267578125,1063.7362060546875
6247.207884071,3000.999267578125,1064.4688720703125
6247.208900084,3000.999267578125,1065.201416015625
6247.210214879,3000.999267578125,1065.201416015625
6247.228907301,3000.999267578125,1065.201416015625
6247.230248367,3000.999267578125,1065.201416015625
6247.262859328,3000.999267578125,1065.201416015625
6247.295153938,3000.999267578125,1065.201416015625
6247.296539606,3000.999267578125,1065.201416015625
6247.328918617,2997.006103515625,1065.201416015625
6247.330125747,2997.006103515625,1065.93408203125
6247.3628685,3000.999267578125,1065.93408203125
6247.367622702,3000.999267578125,1065.93408203125
6247.400120627,3000.999267578125,1065.93408203125
6247.432942444,2997.006103515625,1065.93408203125
6247.433841196,3000.999267578125,1065.93408203125
6247.493928635,3000.999267578125,1065.201416015625
6247.495064008,3000.999267578125,1065.93408203125
6247.49639923,3000.999267578125,1065.93408203125
6247.529104937,3000.999267578125,1065.201416015625
6247.530441113,2997.006103515625,1065.93408203125
6247.562792718,3000.999267578125,1065.93408203125
6247.570335537,3000.999267578125,1065.201416015625
6247.602608251,3000.999267578125,1065.201416015625
6247.603769727,3000.999267578125,1065.201416015625
6247.636659031,3000.999267578125,1065.201416015625
6247.66889108,3000.999267578125,1065.201416015625
6247.670133842,3000.999267578125,1065.201416015625
6247.704118474,3000.999267578125,1065.201416015625
6247.711828226,3005.00341796875,1065.201416015625
6247.743918433,3000.999267578125,1061.5384521484375
6247.799201423,3000.999267578125,1063.7362060546875
6247.800087398,3000.999267578125,1065.201416015625
6247.801263158,3005.00341796875,1065.201416015625
6247.807713185,3000.999267578125,1062.2711181640625
6247.857801414,3000.999267578125,1063.7362060546875
6247.858841699,3005.00341796875,1064.4688720703125
6247.891376352,2997.006103515625,1061.5384521484375
6247.892563303,3000.999267578125,1064.4688720703125
6247.925147467,3000.999267578125,1064.4688720703125
6247.92632543,3000.999267578125,1065.201416015625
6247.958921711,3000.999267578125,1065.201416015625
6247.99162468,3000.999267578125,1065.201416015625
6247.9925987,3000.999267578125,1065.201416015625
6248.025174097,3000.999267578125,1065.201416015625
6248.032701934,3000.999267578125,1065.201416015625
6248.096408035,3000.999267578125,1065.201416015625
6248.097566165,3000.999267578125,1065.201416015625
6248.098841889,3000.999267578125,1065.201416015625
6248.131437635,3000.999267578125,1065.201416015625
6248.132563935,3000.999267578125,1065.201416015625
6248.165418394,3000.999267578125,1064.4688720703125
6248.166703984,2997.006103515625,1065.201416015625
6248.199034421,3000.999267578125,1065.93408203125
6248.231523062,2997.006103515625,1065.201416015625
6248.232554403,3000.999267578125,1065.93408203125
6248.265364464,3000.999267578125,1065.93408203125
6248.266373654,3000.999267578125,1065.93408203125
6248.299245866,3005.00341796875,1065.201416015625
6248.331639694,3005.00341796875,1062.2711181640625
6248.332670611,3000.999267578125,1060.805908203125
6248.405120365,3005.00341796875,1063.003662109375
6248.406289824,3000.999267578125,1060.805908203125
6248.407547543,3000.999267578125,1063.003662109375
6248.411428313,3000.999267578125,1064.4688720703125
6248.443908708,3000.999267578125,1064.4688720703125
6248.445059109,3000.999267578125,1065.201416015625
6248.497802931,3005.00341796875,1065.201416015625
6248.499186168,3005.00341796875,1062.2711181640625
6248.531645466,3005.00341796875,1060.0732421875
6248.533004044,3000.999267578125,1059.3406982421875
6248.565362656,2997.006103515625,1062.2711181640625
6248.566433515,2997.006103515625,1063.7362060546875
6248.598999513,3000.999267578125,1065.93408203125
6248.631417655,3000.999267578125,1066.6666259765625
6248.632521024,3000.999267578125,1065.93408203125
6248.70038045,3000.999267578125,1065.201416015625
6248.70137375,3000.999267578125,1065.201416015625
6248.702573272,3005.00341796875,1065.201416015625
6248.735320603,3000.999267578125,1062.2711181640625
6248.736370527,3000.999267578125,1063.7362060546875
6248.768849008,2997.006103515625,1064.4688720703125
6248.770046268,3000.999267578125,1065.201416015625
6248.802645284,3000.999267578125,1065.201416015625
6248.809026197,2997.006103515625,1065.201416015625
6248.841387129,3000.999267578125,1065.201416015625
6248.849131295,3000.999267578125,1065.93408203125
6248.881381293,2997.006103515625,1065.201416015625
6248.882526291,2953.7705078125,1056.4102783203125
6248.9154041,2969.347412109375,1076.1904296875
6248.947605398,2961.53857421875,1079.853515625
6248.948784245,2965.437744140625,1086.4468994140625
6249.00518772,2965.437744140625,1086.4468994140625
6249.00627036,2965.437744140625,1084.981689453125
6249.007552837,2965.437744140625,1084.981689453125
6249.040526553,2965.437744140625,1084.981689453125
6249.041412795,2961.53857421875,1085.7142333984375
6249.101251707,2965.437744140625,1087.912109375
6249.101346194,2969.347412109375,1086.4468994140625
6249.137699151,2965.437744140625,1084.981689453125
6249.138787445,2965.437744140625,1084.981689453125
6249.171697358,2965.437744140625,1084.981689453125
6249.17267504,2965.437744140625,1084.981689453125
6249.205172836,2961.53857421875,1084.981689453125
6249.206376089,2965.437744140625,1088.6446533203125
6249.239194064,2965.437744140625,1086.4468994140625
6249.244130309,2965.437744140625,1085.7142333984375
6249.296377989,2965.437744140625,1085.7142333984375
6249.297824826,2965.437744140625,1084.981689453125
6249.330372276,2961.53857421875,1084.981689453125
6249.331350507,2961.53857421875,1088.6446533203125
6249.36407601,2961.53857421875,1090.10986328125
6249.365175297,2961.53857421875,1090.842529296875
6249.397861421,2965.437744140625,1090.842529296875
6249.430365987,2961.53857421875,1087.912109375
6249.431618334,2961.53857421875,1089.3773193359375
6249.463918946,2961.53857421875,1090.10986328125
6249.465105534,2961.53857421875,1090.842529296875
6249.497887964,2961.53857421875,1090.842529296875
6249.53023716,2961.53857421875,1091.5750732421875
6249.531654247,2961.53857421875,1091.5750732421875
6249.597741959,2957.6494140625,1091.5750732421875
6249.598834546,2961.53857421875,1088.6446533203125
6249.60004199,2961.53857421875,1090.10986328125
6249.632856585,2961.53857421875,1091.5750732421875
6249.633864403,2961.53857421875,1090.842529296875
6249.666413232,2953.7705078125,1090.10986328125
6249.66757239,2961.53857421875,1092.3077392578125
6249.700386504,2961.53857421875,1091.5750732421875
6249.701336784,2957.6494140625,1091.5750732421875
6249.734107264,2961.53857421875,1088.6446533203125
6249.77780653,2957.6494140625,1090.10986328125
6249.778824836,2961.53857421875,1088.6446533203125
6249.811657472,2961.53857421875,1090.10986328125
6249.812767404,2961.53857421875,1090.842529296875
6249.846448564,2961.53857421875,1090.842529296875
6249.847568489,2957.6494140625,1091.5750732421875
6249.895123939,2957.6494140625,1088.6446533203125
6249.896379504,2957.6494140625,1087.912109375
6249.929142885,2953.7705078125,1087.179443359375
6249.930530207,2957.6494140625,1090.10986328125
6249.962693475,2953.7705078125,1088.6446533203125
6249.967886186,2953.7705078125,1090.842529296875
6250.000291348,2953.7705078125,1092.3077392578125
6250.002380436,2953.7705078125,1093.040283203125
6250.034112448,2953.7705078125,1093.040283203125
6250.066610103,2953.7705078125,1093.040283203125
6250.067619879,2953.7705078125,1093.77294921875
6250.1003954,2949.90185546875,1093.77294921875
6250.132907054,2949.90185546875,1093.77294921875
6250.134292648,2949.90185546875,1094.5054931640625
6250.20397191,2949.90185546875,1095.238037109375
6250.205099079,2949.90185546875,1094.5054931640625
6250.206403723,2949.90185546875,1094.5054931640625
6250.208009864,2946.043212890625,1094.5054931640625
6250.240139898,2949.90185546875,1098.16845703125
6250.245296941,2949.90185546875,1095.970703125
6250.277742121,2949.90185546875,1095.238037109375
6250.310353724,2949.90185546875,1095.238037109375
6250.311396769,2949.90185546875,1095.238037109375
6250.344098317,2949.90185546875,1094.5054931640625
6250.345146212,2946.043212890625,1095.238037109375
6250.377680729,2946.043212890625,1098.16845703125
6250.417623406,2946.043212890625,1099.6336669921875
6250.419020068,2949.90185546875,1100.3663330078125
6250.451501498,2949.90185546875,1097.4359130859375
6250.452673846,2949.90185546875,1095.970703125
6250.501437628,2946.043212890625,1095.238037109375
6250.502585035,2946.043212890625,1098.16845703125
6250.503841585,2949.90185546875,1098.901123046875
6250.536465752,2949.90185546875,1096.7032470703125
6250.568947027,2949.90185546875,1095.970703125
6250.570088875,2949.90185546875,1095.238037109375
6250.602684206,2949.90185546875,1094.5054931640625
6250.607658054,2949.90185546875,1095.238037109375
6250.640172569,2946.043212890625,1095.238037109375
6250.641302832,2949.90185546875,1098.16845703125
6250.674105873,2949.90185546875,1095.970703125
6250.706486679,2946.043212890625,1095.238037109375
6250.707601311,2949.90185546875,1098.16845703125
6250.7426728,2946.043212890625,1095.970703125
6250.743815009,2949.90185546875,1098.16845703125
6250.800295211,2953.7705078125,1096.7032470703125
6250.801323039,2949.90185546875,1095.238037109375
6250.807752682,2953.7705078125,1094.5054931640625
6250.840121849,2949.90185546875,1093.77294921875
6250.872676887,2953.7705078125,1094.5054931640625
6250.873959119,2953.7705078125,1093.77294921875
6250.906418876,2949.90185546875,1093.040283203125
6250.907665518,2957.6494140625,1094.5054931640625
6250.940365285,2953.7705078125,1090.842529296875
6250.972888093,2953.7705078125,1091.5750732421875
6250.974225571,2953.7705078125,1093.040283203125
6251.009290051,2949.90185546875,1093.040283203125
6251.00938492,2953.7705078125,1094.5054931640625
6251.057789209,2953.7705078125,1093.77294921875
6251.05932547,2953.7705078125,1093.77294921875
6251.096420409,2953.7705078125,1093.77294921875
6251.097518179,2953.7705078125,1093.77294921875
6251.130250211,2953.7705078125,1093.040283203125
6251.13135794,2949.90185546875,1093.77294921875
6251.16412895,2949.90185546875,1093.77294921875
6251.165122001,2953.7705078125,1094.5054931640625
6251.197674763,2953.7705078125,1093.77294921875
6251.230370839,2953.7705078125,1093.77294921875
6251.231370755,2953.7705078125,1093.040283203125
6251.264151854,2953.7705078125,1093.040283203125
6251.29658376,2957.6494140625,1093.77294921875
6251.297622222,2949.90185546875,1090.10986328125
6251.305126138,2953.7705078125,1092.3077392578125
6251.337651964,2953.7705078125,1093.040283203125
6251.345362286,2953.7705078125,1093.040283203125
6251.400250976,2953.7705078125,1093.040283203125
6251.401348766,2953.7705078125,1093.040283203125
6251.407915749,2953.7705078125,1093.040283203125
6251.440252816,2957.6494140625,1093.040283203125
6251.441969949,2957.6494140625,1090.10986328125
6251.474123099,2953.7705078125,1088.6446533203125
6251.50652546,2957.6494140625,1090.842529296875
6251.50778116,2953.7705078125,1089.3773193359375
6251.540307639,2953.7705078125,1091.5750732421875
6251.5477257,2985.08935546875,1101.098876953125
6251.580233826,2985.08935546875,1087.912109375
6251.612738857,2985.08935546875,1081.3187255859375
6251.613822559,2989.051025390625,1077.6556396484375
6251.646470667,2989.051025390625,1073.2601318359375
6251.647603049,2985.08935546875,1070.3297119140625
6251.720245867,2989.051025390625,1072.5274658203125
6251.72139465,2985.08935546875,1071.062255859375
6251.72260847,2985.08935546875,1072.5274658203125
6251.730403683,2985.08935546875,1073.99267578125
6251.76278617,2985.08935546875,1074.7252197265625
6251.764245283,2985.08935546875,1074.7252197265625
6251.796752344,2985.08935546875,1074.7252197265625
6251.829288768,2985.08935546875,1074.7252197265625
6251.83059546,2989.051025390625,1074.7252197265625
6251.863003753,2985.08935546875,1071.062255859375
6251.864047164,2985.08935546875,1073.2601318359375
6251.896565669,2985.08935546875,1073.99267578125
6251.929048499,2985.08935546875,1073.99267578125
6251.93018705,2985.08935546875,1074.7252197265625
6252.004644913,2985.08935546875,1073.99267578125
6252.004746747,2985.08935546875,1074.7252197265625
6252.004825083,2981.138427734375,1074.7252197265625
6252.009163983,2985.08935546875,1074.7252197265625
6252.042774607,2981.138427734375,1074.7252197265625
6252.043897423,2985.08935546875,1075.4578857421875
6252.076653739,2985.08935546875,1074.7252197265625
6252.082894623,2985.08935546875,1074.7252197265625
6252.115290985,2985.08935546875,1074.7252197265625
6252.148000739,2981.138427734375,1075.4578857421875
6252.148933913,2981.138427734375,1075.4578857421875
6252.181560478,2981.138427734375,1075.4578857421875
6252.186495377,2985.08935546875,1076.1904296875
6252.218984404,2981.138427734375,1075.4578857421875
6252.251570335,2985.08935546875,1075.4578857421875
6252.253985229,2981.138427734375,1075.4578857421875
6252.305504169,2981.138427734375,1075.4578857421875
6252.306488979,2985.08935546875,1075.4578857421875
6252.307715757,2981.138427734375,1075.4578857421875
6252.338023783,2985.08935546875,1075.4578857421875
6252.370273005,2981.138427734375,1075.4578857421875
6252.371554457,2985.08935546875,1075.4578857421875
6252.404158714,2985.08935546875,1075.4578857421875
6252.405207832,2985.08935546875,1074.7252197265625
6252.43782821,2981.138427734375,1074.7252197265625
6252.442735837,2985.08935546875,1075.4578857421875
6252.475231078,2985.08935546875,1075.4578857421875
6252.507818429,2985.08935546875,1075.4578857421875
6252.508972277,2985.08935546875,1075.4578857421875
6252.541502347,2981.138427734375,1074.7252197265625
6252.546542201,2981.138427734375,1075.4578857421875
6252.600395228,2985.08935546875,1075.4578857421875
6252.601498654,2985.08935546875,1074.7252197265625
6252.60275476,2985.08935546875,1074.7252197265625
6252.63538119,2985.08935546875,1074.7252197265625
6252.667923512,2985.08935546875,1073.99267578125
6252.668997632,2985.08935546875,1074.7252197265625
6252.701966341,2985.08935546875,1074.7252197265625
6252.706478879,2989.051025390625,1074.7252197265625
6252.739239193,2985.08935546875,1071.062255859375
6252.740302495,2985.08935546875,1073.2601318359375
6252.772806121,2985.08935546875,1073.99267578125
6252.80537956,2985.08935546875,1073.99267578125
6252.80645038,2985.08935546875,1073.99267578125
6252.839061965,2981.138427734375,1073.99267578125
6252.910310156,2985.08935546875,1075.4578857421875
6252.911448661,2985.08935546875,1074.7252197265625
6252.912691697,2985.08935546875,1074.7252197265625
6252.914080845,2985.08935546875,1073.99267578125
6252.946542255,2981.138427734375,1074.7252197265625
6252.947652776,2985.08935546875,1075.4578857421875
6252.977946915,2985.08935546875,1074.7252197265625
6253.010240883,2985.08935546875,1074.7252197265625
6253.011429466,2985.08935546875,1074.7252197265625
6253.0442433,2985.08935546875,1073.99267578125
6253.04564198,2985.08935546875,1073.99267578125
6253.078044152,2985.08935546875,1074.7252197265625
6253.085201007,2981.138427734375,1074.7252197265625
6253.117777575,2985.08935546875,1074.7252197265625
6253.12548789,2985.08935546875,1074.7252197265625
6253.158039663,2985.08935546875,1074.7252197265625
6253.194266599,2981.138427734375,1074.7252197265625
6253.19518876,2985.08935546875,1075.4578857421875
6253.227843744,2981.138427734375,1074.7252197265625
6253.228975913,2985.08935546875,1075.4578857421875
6253.261844921,2981.138427734375,1075.4578857421875
6253.262723874,2985.08935546875,1075.4578857421875
6253.295239899,2985.08935546875,1074.7252197265625
6253.328034077,2985.08935546875,1074.7252197265625
6253.328939598,2985.08935546875,1074.7252197265625
6253.361859571,2985.08935546875,1074.7252197265625
6253.362841748,2985.08935546875,1074.7252197265625
6253.395238611,2985.08935546875,1074.7252197265625
6253.428077424,2981.138427734375,1074.7252197265625
6253.429116668,2985.08935546875,1075.4578857421875
6253.461933251,2981.138427734375,1074.7252197265625
6253.504263217,2985.08935546875,1075.4578857421875
6253.505317756,2981.138427734375,1074.7252197265625
6253.506478991,2981.138427734375,1075.4578857421875
6253.539027967,2985.08935546875,1075.4578857421875
6253.54024015,2981.138427734375,1075.4578857421875
6253.572988083,2985.08935546875,1075.4578857421875
6253.617711133,2985.08935546875,1074.7252197265625
6253.619030071,2985.08935546875,1074.7252197265625
6253.651536691,2985.08935546875,1074.7252197265625
6253.652693884,2981.138427734375,1074.7252197265625
6253.685283018,2985.08935546875,1074.7252197265625
6253.68649505,2985.08935546875,1074.7252197265625
6253.71899595,2985.08935546875,1074.7252197265625
6253.72562138,2981.138427734375,1073.99267578125
6253.757970762,2985.08935546875,1075.4578857421875
6253.797790434,2981.138427734375,1075.4578857421875
6253.799126879,2981.138427734375,1075.4578857421875
6253.806870797,2981.138427734375,1076.1904296875
6253.839169189,2985.08935546875,1075.4578857421875
6253.840191627,2981.138427734375,1075.4578857421875
6253.873006191,2981.138427734375,1075.4578857421875
6253.905534981,2985.08935546875,1075.4578857421875
6253.906829691,2985.08935546875,1075.4578857421875
6253.93917661,2985.08935546875,1074.7252197265625
6253.946547101,2985.08935546875,1074.7252197265625
6253.979076725,2985.08935546875,1074.7252197265625
6254.011569862,2985.08935546875,1074.7252197265625
6254.012715191,2985.08935546875,1074.7252197265625
6254.04673442,2981.138427734375,1074.7252197265625
6254.047799412,2985.08935546875,1074.7252197265625
6254.097103605,2985.08935546875,1074.7252197265625
6254.097777905,2985.08935546875,1074.7252197265625
6254.130529691,2985.08935546875,1074.7252197265625
6254.131909571,2985.08935546875,1074.7252197265625
6254.164066203,2985.08935546875,1074.7252197265625
6254.165206883,2985.08935546875,1073.99267578125
6254.197750163,2985.08935546875,1074.7252197265625
6254.203021779,2985.08935546875,1074.7252197265625
6254.257901857,2981.138427734375,1074.7252197265625
6254.259061401,2985.08935546875,1074.7252197265625
6254.291839964,2981.138427734375,1074.7252197265625
6254.29282762,2981.138427734375,1075.4578857421875
6254.325518831,2985.08935546875,1075.4578857421875
6254.326511515,2985.08935546875,1074.7252197265625
6254.359277509,2985.08935546875,1074.7252197265625
6254.360409461,2985.08935546875,1074.7252197265625
6254.401854417,2985.08935546875,1074.7252197265625
6254.402759085,2985.08935546875,1073.99267578125
6254.435349444,2985.08935546875,1074.7252197265625
6254.467897906,2981.138427734375,1074.7252197265625
6254.469048248,2985.08935546875,1074.7252197265625
6254.501765824,2985.08935546875,1074.7252197265625
6254.502758797,2985.08935546875,1074.7252197265625
6254.535495754,2985.08935546875,1074.7252197265625
6254.567981098,2985.08935546875,1074.7252197265625
6254.568968183,2985.08935546875,1074.7252197265625
6254.601747605,2985.08935546875,1074.7252197265625
6254.634068148,2985.08935546875,1074.7252197265625
6254.635127928,2985.08935546875,1074.7252197265625
6254.642727632,2985.08935546875,1074.7252197265625
6254.714058204,2985.08935546875,1074.7252197265625
6254.715306908,2985.08935546875,1074.7252197265625
6254.716501328,2985.08935546875,1074.7252197265625
6254.742763854,2989.051025390625,1074.7252197265625
6254.743915993,2989.051025390625,1071.062255859375
6254.777978565,2989.051025390625,1069.5970458984375
6254.810385907,2989.051025390625,1068.864501953125
6254.811422134,2989.051025390625,1068.864501953125
6254.844137793,2989.051025390625,1068.1318359375
6254.845169651,2989.051025390625,1068.864501953125
6254.897890012,2989.051025390625,1068.1318359375
6254.899233046,2989.051025390625,1068.1318359375
6254.905616006,2989.051025390625,1068.1318359375
6254.937788053,2989.051025390625,1068.1318359375
6255.007031295,2989.051025390625,1068.1318359375
6255.007127161,2989.051025390625,1068.1318359375
6255.007206537,2993.023193359375,1068.1318359375
6255.007282722,2989.051025390625,1070.3297119140625
6255.039279567,2989.051025390625,1069.5970458984375
6255.040250155,2989.051025390625,1068.864501953125
6255.074288675,2989.051025390625,1068.864501953125
6255.10649735,2989.051025390625,1068.1318359375
6255.107701259,2989.051025390625,1068.1318359375
6255.140440451,2989.051025390625,1067.3992919921875
6255.141445141,2989.051025390625,1068.1318359375
6255.173969254,2989.051025390625,1068.1318359375
6255.206478552,2989.051025390625,1068.1318359375
6255.207748657,2989.051025390625,1068.1318359375
6255.240631639,2985.08935546875,1068.1318359375
6255.245435287,2989.051025390625,1071.794921875
6255.301522759,2989.051025390625,1069.5970458984375
6255.302681918,2989.051025390625,1068.864501953125
6255.303982598,2989.051025390625,1068.1318359375
6255.336804133,2985.08935546875,1068.864501953125
6255.36923353,2989.051025390625,1071.794921875
6255.370313697,2989.051025390625,1070.3297119140625
6255.40303038,2989.051025390625,1068.864501953125
6255.403986731,2989.051025390625,1068.864501953125
6255.436544667,2993.023193359375,1068.864501953125
6255.441775541,2989.051025390625,1071.062255859375
6255.474031465,2989.051025390625,1068.864501953125
6255.506486791,2989.051025390625,1068.1318359375
6255.50769747,2985.08935546875,1068.864501953125
6255.538003372,2989.051025390625,1071.794921875
6255.597762387,2989.051025390625,1069.5970458984375
6255.599046621,2989.051025390625,1068.864501953125
6255.60038051,2989.051025390625,1068.1318359375
6255.601440709,2989.051025390625,1068.1318359375
6255.634277382,2989.051025390625,1067.3992919921875
6255.666740373,2993.023193359375,1068.1318359375
6255.667708026,2989.051025390625,1071.062255859375
6255.700626468,2989.051025390625,1068.864501953125
6255.706480729,2989.051025390625,1068.864501953125
6255.739188407,2989.051025390625,1068.1318359375
6255.746632931,2989.051025390625,1068.1318359375
6255.779052564,2993.023193359375,1068.1318359375
6255.780410858,2989.051025390625,1071.062255859375
6255.81281688,2993.023193359375,1069.5970458984375
6255.84548549,2989.051025390625,1071.062255859375
6255.847886267,2993.023193359375,1069.5970458984375
6255.904216631,2989.051025390625,1071.062255859375
6255.905328263,2989.051025390625,1069.5970458984375
6255.906491996,2989.051025390625,1068.864501953125
6255.939013702,2993.023193359375,1068.864501953125
6255.940377497,2989.051025390625,1071.062255859375
6255.972699634,2989.051025390625,1069.5970458984375
6256.005334249,2989.051025390625,1068.864501953125
6256.006431319,2989.051025390625,1068.864501953125
6256.038981702,2989.051025390625,1068.1318359375
6256.044068006,2993.023193359375,1068.864501953125
6256.076532797,2993.023193359375,1070.3297119140625
6256.078417399,2993.023193359375,1071.794921875
6256.110395036,2993.023193359375,1072.5274658203125
6256.142793091,2989.051025390625,1072.5274658203125
6256.144024186,2989.051025390625,1070.3297119140625
6256.211574847,2993.023193359375,1069.5970458984375
6256.212683076,2989.051025390625,1071.062255859375
6256.213902877,2985.08935546875,1069.5970458984375
6256.24651198,2989.051025390625,1072.5274658203125
6256.247650129,2989.051025390625,1069.5970458984375
6256.280360179,2989.051025390625,1068.864501953125
6256.281687793,2989.051025390625,1068.864501953125
6256.313989498,2989.051025390625,1068.1318359375
6256.346644197,2989.051025390625,1068.864501953125
6256.347651838,2985.08935546875,1068.1318359375
6256.38037763,2989.051025390625,1071.062255859375
6256.412923928,2989.051025390625,1069.5970458984375
6256.413984362,2989.051025390625,1068.864501953125
6256.446650856,2989.051025390625,1068.1318359375
6256.447801662,2989.051025390625,1068.1318359375
6256.500376068,2989.051025390625,1068.864501953125
6256.501398333,2989.051025390625,1068.864501953125
6256.503001399,2989.051025390625,1068.1318359375
6256.535625823,2989.051025390625,1068.1318359375
6256.568092138,2985.08935546875,1068.1318359375
6256.568952465,2989.051025390625,1071.794921875
6256.601859634,2989.051025390625,1070.3297119140625
6256.6028898,2993.023193359375,1068.864501953125
6256.635571733,2989.051025390625,1071.062255859375
6256.668063375,2989.051025390625,1069.5970458984375
6256.669319752,2989.051025390625,1068.864501953125
6256.702008856,2989.051025390625,1068.1318359375
6256.70661641,2989.051025390625,1068.1318359375
6256.739211074,2993.023193359375,1068.1318359375
6256.740332432,2989.051025390625,1071.062255859375
6256.81313659,2989.051025390625,1069.5970458984375
6256.814449277,2985.08935546875,1068.864501953125
6256.815420696,2989.051025390625,1071.794921875
6256.831888185,2989.051025390625,1069.5970458984375
6256.864159238,2993.023193359375,1068.864501953125
6256.866065269,2993.023193359375,1071.062255859375
6256.89790525,2989.051025390625,1071.794921875
6256.899110422,2993.023193359375,1069.5970458984375
6256.931640026,2993.023193359375,1071.062255859375
6256.964167374,2985.08935546875,1071.794921875
6256.965270397,2989.051025390625,1073.2601318359375
6256.997932225,2989.051025390625,1070.3297119140625
6257.005341283,2989.051025390625,1069.5970458984375
6257.037883684,2989.051025390625,1068.864501953125
6257.039063341,2989.051025390625,1068.864501953125
6257.099332665,2989.051025390625,1068.1318359375
6257.100330206,2989.051025390625,1068.1318359375
6257.101517527,2989.051025390625,1068.1318359375
6257.134187882,2985.08935546875,1068.1318359375
6257.166908634,2989.051025390625,1071.794921875
6257.168211478,2985.08935546875,1069.5970458984375
6257.200616881,2981.138427734375,1071.794921875
6257.20150426,2989.051025390625,1073.99267578125
6257.234179898,2985.08935546875,1071.062255859375
6257.241749759,2989.051025390625,1072.5274658203125
6257.274145368,2989.051025390625,1070.3297119140625
6257.306685343,2985.08935546875,1068.864501953125
6257.309186438,2985.08935546875,1071.794921875
6257.341639659,2981.138427734375,1072.5274658203125
6257.347888117,2981.138427734375,1073.99267578125
6257.402119777,2981.138427734375,1074.7252197265625
6257.402934863,2981.138427734375,1075.4578857421875
6257.404112295,2977.197509765625,1075.4578857421875
6257.459135823,2981.138427734375,1079.120849609375
6257.46027155,2977.197509765625,1076.923095703125
6257.461517867,2977.197509765625,1079.853515625
6257.494259739,2977.197509765625,1080.5860595703125
6257.52670076,2977.197509765625,1081.3187255859375
6257.527913775,2977.197509765625,1081.3187255859375
6257.560760102,2973.267333984375,1082.05126953125
6257.561538908,2973.267333984375,1079.853515625
6257.594134995,2973.267333984375,1079.120849609375
6257.62664009,2977.197509765625,1078.3883056640625
6257.628225834,2969.347412109375,1079.853515625
6257.660432075,2973.267333984375,1082.05126953125
6257.69950677,2973.267333984375,1079.853515625
6257.700394395,2973.267333984375,1079.120849609375
6257.701621502,2973.267333984375,1077.6556396484375
6257.734422837,2969.347412109375,1077.6556396484375
6257.766764557,2969.347412109375,1080.5860595703125
6257.767835895,2973.267333984375,1082.05126953125
6257.800535277,2969.347412109375,1079.853515625
6257.805364044,2969.347412109375,1082.05126953125
6257.837904818,2969.347412109375,1082.783935546875
6257.839105653,2969.347412109375,1083.5164794921875
6257.871598773,2965.437744140625,1083.5164794921875
6257.904159409,2965.437744140625,1084.2490234375
6257.905361726,2965.437744140625,1084.2490234375
6257.93817606,2969.347412109375,1084.2490234375
6257.945496285,2965.437744140625,1084.2490234375
6258.000694938,2965.437744140625,1084.981689453125
6258.001642269,2961.53857421875,1084.981689453125
6258.002917893,2961.53857421875,1088.6446533203125
6258.035473614,2957.6494140625,1090.10986328125
6258.036617307,2961.53857421875,1088.6446533203125
6258.069332654,2961.53857421875,1090.10986328125
6258.097956765,2961.53857421875,1090.842529296875
6258.099131654,2961.53857421875,1090.842529296875
6258.131671,2961.53857421875,1091.5750732421875
6258.16437398,2957.6494140625,1091.5750732421875
6258.165321022,2957.6494140625,1089.3773193359375
6258.198125119,2961.53857421875,1087.912109375
6258.199123041,2957.6494140625,1090.10986328125
6258.231627097,2957.6494140625,1088.6446533203125
6258.300447872,2957.6494140625,1087.912109375
6258.301613428,2957.6494140625,1087.912109375
6258.302808484,2957.6494140625,1087.179443359375
6258.304156539,2957.6494140625,1087.179443359375
6258.337162733,2957.6494140625,1087.179443359375
6258.338056374,2953.7705078125,1087.179443359375
6258.370441542,2953.7705078125,1090.10986328125
6258.402895378,2953.7705078125,1091.5750732421875
6258.404213584,2953.7705078125,1092.3077392578125
6258.436788453,2949.90185546875,1093.040283203125
6258.444151222,2949.90185546875,1093.77294921875
6258.476854511,2953.7705078125,1093.77294921875
6258.47797368,2949.90185546875,1093.77294921875
6258.5104443,2953.7705078125,1093.77294921875
6258.543021119,2953.7705078125,1093.77294921875
6258.544639918,2949.90185546875,1093.77294921875
6258.596856351,2949.90185546875,1094.5054931640625
6258.597875751,2949.90185546875,1094.5054931640625
6258.630543467,2953.7705078125,1094.5054931640625
6258.631687108,2953.7705078125,1094.5054931640625
6258.664203754,2949.90185546875,1093.77294921875
6258.665346956,2953.7705078125,1094.5054931640625
6258.698128042,2949.90185546875,1093.77294921875
6258.699167372,2949.90185546875,1094.5054931640625
6258.73788928,2953.7705078125,1094.5054931640625
6258.743102729,2953.7705078125,1093.77294921875
6258.770408685,2949.90185546875,1093.77294921875
6258.804073697,2949.90185546875,1093.77294921875
6258.8053459,2949.90185546875,1094.5054931640625
6258.837898915,2949.90185546875,1094.5054931640625
6258.839082889,2953.7705078125,1095.238037109375
6258.895619965,2953.7705078125,1094.5054931640625
6258.896873977,2953.7705078125,1093.77294921875
6258.929133556,2949.90185546875,1094.5054931640625
6258.930401317,2953.7705078125,1094.5054931640625
6258.963095365,2953.7705078125,1093.77294921875
6258.964222031,2953.7705078125,1094.5054931640625
6258.996918499,2949.90185546875,1093.77294921875
6258.997933678,2953.7705078125,1094.5054931640625
6259.03084233,2953.7705078125,1094.5054931640625
6259.062871175,2949.90185546875,1093.040283203125
6259.064026851,2953.7705078125,1093.77294921875
6259.096855292,2957.6494140625,1093.77294921875
6259.129368892,2953.7705078125,1090.10986328125
6259.130409056,2953.7705078125,1091.5750732421875
6259.201656283,2949.90185546875,1092.3077392578125
6259.2028711,2957.6494140625,1093.77294921875
6259.204104457,2953.7705078125,1090.842529296875
6259.214114663,2953.7705078125,1092.3077392578125
6259.255961001,2957.6494140625,1093.040283203125
6259.256056563,2957.6494140625,1090.10986328125
6259.280462025,2953.7705078125,1088.6446533203125
6259.281617413,2953.7705078125,1091.5750732421875
6259.314087939,2953.7705078125,1092.3077392578125
6259.319170956,2953.7705078125,1093.040283203125
6259.351642419,2957.6494140625,1093.040283203125
6259.379279049,2957.6494140625,1090.10986328125
6259.380353512,2957.6494140625,1087.912109375
6259.412999,2957.6494140625,1087.912109375
6259.44566608,2953.7705078125,1087.912109375
6259.447100479,2957.6494140625,1090.10986328125
6259.499275024,2949.90185546875,1088.6446533203125
6259.500292712,2953.7705078125,1092.3077392578125
6259.501649637,2949.90185546875,1092.3077392578125
6259.534178448,2953.7705078125,1093.77294921875
6259.566681288,2957.6494140625,1093.040283203125
6259.567894166,2953.7705078125,1090.10986328125
6259.600968167,2953.7705078125,1091.5750732421875
6259.601653458,2953.7705078125,1093.040283203125
6259.634244791,2957.6494140625,1093.040283203125
6259.639089069,2953.7705078125,1089.3773193359375
6259.67177521,2957.6494140625,1091.5750732421875
6259.70410154,2957.6494140625,1089.3773193359375
6259.70529051,2953.7705078125,1088.6446533203125
6259.73801631,2953.7705078125,1090.842529296875
6259.742891485,2953.7705078125,1092.3077392578125
6259.799260666,2957.6494140625,1093.040283203125
6259.800299749,2953.7705078125,1090.10986328125
6259.801580333,2953.7705078125,1091.5750732421875
6259.834248228,2953.7705078125,1092.3077392578125
6259.866759079,2957.6494140625,1093.040283203125
6259.867866091,2953.7705078125,1090.10986328125
6259.900434034,2953.7705078125,1091.5750732421875
6259.901694554,2957.6494140625,1093.040283203125
6259.934134876,2957.6494140625,1090.10986328125
6259.93527143,2953.7705078125,1088.6446533203125
6259.968120532,2953.7705078125,1090.842529296875
6260.017932559,2953.7705078125,1092.3077392578125
6260.019090006,2957.6494140625,1093.040283203125
6260.020298255,2957.6494140625,1089.3773193359375
6260.053066881,2957.6494140625,1087.912109375
6260.101666276,2957.6494140625,1087.912109375
6260.102792299,2957.6494140625,1087.179443359375
6260.104019342,2961.53857421875,1087.179443359375
6260.136587149,2957.6494140625,1089.3773193359375
6260.137799681,2953.7705078125,1087.912109375
6260.170483842,2957.6494140625,1090.842529296875
6260.202858772,2953.7705078125,1089.3773193359375
6260.204122702,2953.7705078125,1090.842529296875
6260.236670639,2957.6494140625,1092.3077392578125
6260.237850438,2957.6494140625,1089.3773193359375
6260.270464084,2957.6494140625,1087.912109375
6260.302876229,2957.6494140625,1087.179443359375
6260.304078314,2961.53857421875,1087.912109375
6260.336687452,2957.6494140625,1089.3773193359375
6260.341621628,2961.53857421875,1088.6446533203125
6260.402867834,2957.6494140625,1090.10986328125
6260.404005451,2957.6494140625,1088.6446533203125
6260.405346769,2961.53857421875,1087.179443359375
6260.437880402,2961.53857421875,1089.3773193359375
6260.439082022,2961.53857421875,1090.842529296875
6260.471709614,2965.437744140625,1090.10986328125
6260.504199551,2961.53857421875,1087.912109375
6260.50532438,2961.53857421875,1089.3773193359375
6260.538081139,2961.53857421875,1090.842529296875
6260.543143471,2961.53857421875,1090.842529296875
6260.57544262,2961.53857421875,1090.842529296875
6260.576563916,2961.53857421875,1091.5750732421875
6260.609346412,2965.437744140625,1091.5750732421875
6260.658038484,2957.6494140625,1087.912109375
6260.659147458,2957.6494140625,1087.179443359375
6260.660763509,2961.53857421875,1087.179443359375
6260.700404815,2961.53857421875,1089.3773193359375
6260.705642297,2961.53857421875,1090.10986328125
6260.737909181,2961.53857421875,1090.842529296875
6260.739007751,2961.53857421875,1091.5750732421875
6260.771829498,2965.437744140625,1091.5750732421875
6260.804127822,2965.437744140625,1087.912109375
6260.805325717,2961.53857421875,1087.179443359375
6260.837892814,2965.437744140625,1088.6446533203125
6260.839063217,2965.437744140625,1087.179443359375
6260.871742621,2965.437744140625,1085.7142333984375
6260.876637169,2961.53857421875,1085.7142333984375
6260.909156385,2965.437744140625,1088.6446533203125
6260.941868124,2965.437744140625,1087.179443359375
6260.943282891,2965.437744140625,1086.4468994140625
6261.001849385,2965.437744140625,1085.7142333984375
6261.002833498,2965.437744140625,1085.7142333984375
6261.004107598,2965.437744140625,1085.7142333984375
6261.036609691,2965.437744140625,1084.981689453125
6261.037917018,2965.437744140625,1084.981689453125
6261.0706746,2965.437744140625,1084.981689453125
6261.103033262,2965.437744140625,1085.7142333984375
6261.104061506,2965.437744140625,1084.981689453125
6261.136714368,2969.347412109375,1084.2490234375
6261.14434039,2969.347412109375,1084.2490234375
6261.17666366,2969.347412109375,1084.2490234375
6261.184147354,2969.347412109375,1084.2490234375
6261.216757326,2965.437744140625,1083.5164794921875
6261.217763005,2969.347412109375,1084.2490234375
6261.250958742,2969.347412109375,1084.2490234375
6261.323400831,2969.347412109375,1083.5164794921875
6261.324210546,2969.347412109375,1084.2490234375
6261.325357736,2973.267333984375,1084.2490234375
6261.329370295,2973.267333984375,1080.5860595703125
6261.361766641,2965.437744140625,1078.3883056640625
6261.362829226,2973.267333984375,1082.05126953125
6261.395530407,2969.347412109375,1079.853515625
6261.396772231,2973.267333984375,1082.05126953125
6261.429321572,2969.347412109375,1079.853515625
6261.46170381,2965.437744140625,1081.3187255859375
6261.46293051,2973.267333984375,1083.5164794921875
6261.495565408,2969.347412109375,1079.853515625
6261.503236378,2973.267333984375,1082.05126953125
6261.535460835,2973.267333984375,1079.853515625
6261.536537681,2973.267333984375,1078.3883056640625
6261.600681158,2973.267333984375,1078.3883056640625
6261.601716641,2973.267333984375,1078.3883056640625
6261.602819836,2973.267333984375,1077.6556396484375
6261.635674576,2973.267333984375,1077.6556396484375
6261.636776576,2969.347412109375,1077.6556396484375
6261.669384258,2973.267333984375,1080.5860595703125
6261.702039606,2969.347412109375,1079.120849609375
6261.703385365,2969.347412109375,1081.3187255859375
6261.735510409,2973.267333984375,1082.783935546875
6261.73671574,2973.267333984375,1079.853515625
6261.769281443,2973.267333984375,1079.120849609375
6261.801754648,2965.437744140625,1078.3883056640625
6261.802949342,2973.267333984375,1082.05126953125
6261.835549903,2973.267333984375,1079.120849609375
6261.836707732,2973.267333984375,1078.3883056640625
6261.906785801,2969.347412109375,1078.3883056640625
6261.907956077,2973.267333984375,1081.3187255859375
6261.909196491,2973.267333984375,1079.120849609375
6261.938249557,2969.347412109375,1078.3883056640625
6261.944255953,2973.267333984375,1081.3187255859375
6261.976879446,2969.347412109375,1079.120849609375
6261.981801353,2973.267333984375,1081.3187255859375
6262.014379388,2973.267333984375,1079.853515625
6262.015490667,2973.267333984375,1078.3883056640625
6262.048018516,2973.267333984375,1078.3883056640625
6262.080648076,2969.347412109375,1077.6556396484375
6262.081780992,2973.267333984375,1081.3187255859375
6262.114290588,2973.267333984375,1079.120849609375
6262.121787259,2973.267333984375,1078.3883056640625
6262.154398534,2973.267333984375,1077.6556396484375
6262.155424418,2973.267333984375,1076.923095703125
6262.194252747,2973.267333984375,1077.6556396484375
6262.201756217,2973.267333984375,1077.6556396484375
6262.234319737,2973.267333984375,1077.6556396484375
6262.239515693,2973.267333984375,1077.6556396484375
6262.271771932,2973.267333984375,1077.6556396484375
6262.304266767,2973.267333984375,1077.6556396484375
6262.305832453,2969.347412109375,1077.6556396484375
6262.33806479,2969.347412109375,1081.3187255859375
6262.339252825,2969.347412109375,1082.783935546875
6262.372014143,2969.347412109375,1083.5164794921875
6262.379301178,2969.347412109375,1083.5164794921875
6262.411722199,2969.347412109375,1083.5164794921875
6262.444541028,2969.347412109375,1083.5164794921875
6262.445452947,2969.347412109375,1083.5164794921875
6262.500545142,2969.347412109375,1084.2490234375
6262.50168737,2969.347412109375,1083.5164794921875
6262.502909529,2969.347412109375,1083.5164794921875
6262.535603296,2969.347412109375,1083.5164794921875
6262.536690888,2969.347412109375,1083.5164794921875
6262.577999103,2965.437744140625,1083.5164794921875
6262.579258558,2965.437744140625,1084.2490234375
6262.611779252,2969.347412109375,1084.2490234375
6262.644294634,2969.347412109375,1084.2490234375
6262.645749559,2969.347412109375,1083.5164794921875
6262.67818824,2965.437744140625,1083.5164794921875
6262.679218341,2969.347412109375,1084.2490234375
6262.711885853,2965.437744140625,1083.5164794921875
6262.744463773,2965.437744140625,1084.981689453125
6262.745526291,2965.437744140625,1084.981689453125
6262.799509288,2961.53857421875,1084.981689453125
6262.800535588,2961.53857421875,1087.912109375
6262.801761791,2965.437744140625,1090.10986328125
6262.828026348,2965.437744140625,1087.179443359375
6262.838043131,2965.437744140625,1086.4468994140625
6262.870668664,2965.437744140625,1085.7142333984375
6262.903241859,2965.437744140625,1084.981689453125
6262.90431669,2965.437744140625,1084.981689453125
6262.937034816,2965.437744140625,1084.981689453125
6262.941849135,2961.53857421875,1085.7142333984375
6262.974268743,2961.53857421875,1088.6446533203125
6262.975616031,2961.53857421875,1090.10986328125
6263.008015218,2961.53857421875,1090.842529296875
6263.040864899,2965.437744140625,1090.842529296875
6263.041742561,2961.53857421875,1087.912109375
6263.108047569,2965.437744140625,1089.3773193359375
6263.109228893,2961.53857421875,1087.912109375
6263.110435245,2961.53857421875,1089.3773193359375
6263.143110544,2961.53857421875,1090.10986328125
6263.14417372,2965.437744140625,1090.842529296875
6263.176848804,2961.53857421875,1087.912109375
6263.179342098,2961.53857421875,1090.10986328125
6263.218004029,2961.53857421875,1090.842529296875
6263.21947073,2961.53857421875,1091.5750732421875
6263.251913822,2965.437744140625,1090.842529296875
6263.284488267,2965.437744140625,1088.6446533203125
6263.285493329,2965.437744140625,1086.4468994140625
6263.31825404,2965.437744140625,1085.7142333984375
6263.31939765,2965.437744140625,1085.7142333984375
6263.351893494,2965.437744140625,1085.7142333984375
6263.395520471,2965.437744140625,1084.981689453125
6263.39669912,2965.437744140625,1085.7142333984375
6263.429784969,2961.53857421875,1085.7142333984375
6263.430619495,2965.437744140625,1088.6446533203125
6263.436761027,2965.437744140625,1086.4468994140625
6263.46929623,2965.437744140625,1085.7142333984375
6263.501923012,2961.53857421875,1085.7142333984375
6263.502997624,2965.437744140625,1088.6446533203125
6263.535484859,2957.6494140625,1086.4468994140625
6263.541801959,2961.53857421875,1086.4468994140625
6263.574264362,2961.53857421875,1089.3773193359375
6263.606838426,2965.437744140625,1090.10986328125
6263.607947651,2961.53857421875,1087.912109375
6263.640821505,2957.6494140625,1089.3773193359375
6263.641733918,2961.53857421875,1088.6446533203125
6263.703119977,2961.53857421875,1090.10986328125
6263.704268141,2961.53857421875,1090.842529296875
6263.705922271,2961.53857421875,1090.842529296875
6263.738087908,2961.53857421875,1090.842529296875
6263.739213376,2965.437744140625,1091.5750732421875
6263.772074563,2969.347412109375,1088.6446533203125
6263.773025568,2973.267333984375,1087.179443359375
6263.80568416,2977.197509765625,1082.783935546875
6263.858109589,2977.197509765625,1084.2490234375
6263.859239624,2993.023193359375,1086.4468994140625
6263.860431576,2993.023193359375,1079.120849609375
6263.893086454,2989.051025390625,1074.7252197265625
6263.925554586,2985.08935546875,1071.062255859375
6263.927000979,2985.08935546875,1073.2601318359375
6263.95948785,2981.138427734375,1073.99267578125
6263.960423758,2981.138427734375,1075.4578857421875
6263.998244206,2981.138427734375,1075.4578857421875
6263.999342996,2981.138427734375,1075.4578857421875
6264.031938788,2981.138427734375,1075.4578857421875
6264.0643646,2981.138427734375,1075.4578857421875
6264.065560603,2985.08935546875,1074.7252197265625
6264.098163528,2985.08935546875,1073.99267578125
6264.099286587,2989.051025390625,1076.923095703125
6264.131960541,2981.138427734375,1071.062255859375
6264.139324826,2981.138427734375,1073.99267578125
6264.171788622,2981.138427734375,1074.7252197265625
6264.205559142,2981.138427734375,1075.4578857421875
6264.206787859,2981.138427734375,1075.4578857421875
6264.239288141,2981.138427734375,1075.4578857421875
6264.240533158,2981.138427734375,1075.4578857421875
6264.309374111,2981.138427734375,1076.1904296875
6264.310499891,2981.138427734375,1076.1904296875
6264.311699052,2981.138427734375,1075.4578857421875
6264.344354971,2981.138427734375,1075.4578857421875
6264.345419639,2985.08935546875,1074.7252197265625
6264.378149552,2977.197509765625,1073.99267578125
6264.379296686,2977.197509765625,1078.3883056640625
6264.412093325,2977.197509765625,1079.853515625
6264.412922916,2973.267333984375,1080.5860595703125
6264.445570912,2969.347412109375,1078.3883056640625
6264.498073983,2973.267333984375,1080.5860595703125
6264.499910803,2973.267333984375,1079.120849609375
6264.500445797,2969.347412109375,1077.6556396484375
6264.533085982,2973.267333984375,1081.3187255859375
6264.596995925,2969.347412109375,1079.120849609375
6264.598331278,2969.347412109375,1081.3187255859375
6264.59924228,2969.347412109375,1082.05126953125
6264.600590173,2969.347412109375,1083.5164794921875
6264.633112806,2973.267333984375,1083.5164794921875
6264.638034729,2969.347412109375,1080.5860595703125
6264.670577457,2969.347412109375,1082.05126953125
6264.704329564,2969.347412109375,1083.5164794921875
6264.705528498,2969.347412109375,1083.5164794921875
6264.738096159,2969.347412109375,1083.5164794921875
6264.739285007,2973.267333984375,1083.5164794921875
6264.771797416,2973.267333984375,1080.5860595703125
6264.776753369,2973.267333984375,1078.3883056640625
6264.809681301,2973.267333984375,1078.3883056640625
6264.842053617,2969.347412109375,1078.3883056640625
6264.843277659,2969.347412109375,1080.5860595703125
6264.905569632,2969.347412109375,1082.05126953125
6264.906845456,2969.347412109375,1083.5164794921875
6264.907945214,2969.347412109375,1083.5164794921875
6264.940584044,2965.437744140625,1083.5164794921875
6264.941697479,2969.347412109375,1084.2490234375
6264.974369033,2973.267333984375,1083.5164794921875
6264.980752506,2973.267333984375,1080.5860595703125
6265.013001128,2973.267333984375,1079.120849609375
6265.045481458,2969.347412109375,1078.3883056640625
6265.046722767,2973.267333984375,1081.3187255859375
6265.079455774,2973.267333984375,1079.120849609375
6265.080851368,2973.267333984375,1078.3883056640625
6265.138171119,2973.267333984375,1078.3883056640625
6265.139398551,2973.267333984375,1077.6556396484375
6265.140471776,2969.347412109375,1077.6556396484375
6265.196879695,2973.267333984375,1080.5860595703125
6265.198209006,2973.267333984375,1079.853515625
6265.199506161,2973.267333984375,1078.3883056640625
6265.231819695,2977.197509765625,1078.3883056640625
6265.232962212,2973.267333984375,1079.853515625
6265.265898815,2977.197509765625,1079.120849609375
6265.298257333,2977.197509765625,1080.5860595703125
6265.299389917,2977.197509765625,1081.3187255859375
6265.332039959,2973.267333984375,1082.05126953125
6265.364646343,2977.197509765625,1079.853515625
6265.365848746,2977.197509765625,1081.3187255859375
6265.398040424,2977.197509765625,1081.3187255859375
6265.399582485,2981.138427734375,1082.05126953125
6265.43179633,2977.197509765625,1078.3883056640625
6265.439421861,2977.197509765625,1080.5860595703125
6265.509418364,2977.197509765625,1080.5860595703125
6265.510423893,2981.138427734375,1082.05126953125
6265.511713347,2977.197509765625,1078.3883056640625
6265.5129655,2977.197509765625,1080.5860595703125
6265.545496074,2981.138427734375,1081.3187255859375
6265.578093511,2977.197509765625,1077.6556396484375
6265.579448501,2981.138427734375,1080.5860595703125
6265.61178974,2981.138427734375,1077.6556396484375
6265.619398019,2981.138427734375,1076.923095703125
6265.651815287,2981.138427734375,1076.1904296875
6265.684409562,2981.138427734375,1076.1904296875
6265.685515412,2981.138427734375,1075.4578857421875
6265.718185768,2981.138427734375,1075.4578857421875
6265.719634303,2981.138427734375,1076.1904296875
6265.751824498,2981.138427734375,1075.4578857421875
6265.811733909,2981.138427734375,1075.4578857421875
6265.81289985,2977.197509765625,1076.1904296875
6265.814339571,2981.138427734375,1079.120849609375
6265.846783462,2981.138427734375,1076.923095703125
6265.847957045,2981.138427734375,1076.1904296875
6265.880518275,2977.197509765625,1075.4578857421875
6265.881730935,2981.138427734375,1079.120849609375
6265.914436308,2977.197509765625,1076.923095703125
6265.915458908,2981.138427734375,1079.853515625
6265.948055579,2981.138427734375,1077.6556396484375
6265.98072398,2981.138427734375,1076.923095703125
6265.981774899,2981.138427734375,1076.1904296875
6266.014425703,2977.197509765625,1076.1904296875
6266.015440939,2981.138427734375,1079.120849609375
6266.048012453,2981.138427734375,1077.6556396484375
6266.099450347,2981.138427734375,1076.1904296875
6266.100480954,2981.138427734375,1076.1904296875
6266.101708813,2985.08935546875,1075.4578857421875
6266.13442828,2981.138427734375,1075.4578857421875
6266.140540654,2985.08935546875,1075.4578857421875
6266.173184335,2985.08935546875,1075.4578857421875
6266.174337117,2985.08935546875,1074.7252197265625
6266.206810902,2985.08935546875,1074.7252197265625
6266.239429088,2985.08935546875,1074.7252197265625
6266.240455886,2985.08935546875,1075.4578857421875
6266.273151519,2981.138427734375,1074.7252197265625
6266.278151655,2985.08935546875,1075.4578857421875
6266.310955639,2985.08935546875,1074.7252197265625
6266.311697838,2985.08935546875,1074.7252197265625
6266.344356703,2985.08935546875,1074.7252197265625
6266.416928432,2985.08935546875,1074.7252197265625
6266.417910926,2985.08935546875,1074.7252197265625
6266.419390435,2985.08935546875,1074.7252197265625
6266.429698875,2985.08935546875,1074.7252197265625
6266.462003678,2985.08935546875,1074.7252197265625
6266.463434168,2985.08935546875,1074.7252197265625
6266.495865833,2981.138427734375,1074.7252197265625
6266.496934811,2985.08935546875,1075.4578857421875
6266.529425494,2989.051025390625,1074.7252197265625
6266.536853325,2985.08935546875,1071.062255859375
6266.569454422,2989.051025390625,1073.2601318359375
6266.60203061,2985.08935546875,1071.062255859375
6266.603151704,2985.08935546875,1073.2601318359375
6266.635625853,2985.08935546875,1073.2601318359375
6266.636764575,2985.08935546875,1073.99267578125
6266.696935154,2989.051025390625,1074.7252197265625
6266.69838334,2989.051025390625,1071.794921875
6266.699406065,2993.023193359375,1071.794921875
6266.731941913,2977.197509765625,1071.062255859375
6266.736841559,2961.53857421875,1076.1904296875
6266.769394586,2961.53857421875,1083.5164794921875
6266.802014542,2957.6494140625,1087.179443359375
6266.803110956,2965.437744140625,1087.912109375
6266.835965778,2965.437744140625,1087.179443359375
6266.838135493,2973.267333984375,1086.4468994140625
6266.857019037,2973.267333984375,1082.05126953125
6266.889353713,2977.197509765625,1079.853515625
6266.921915061,2985.08935546875,1082.05126953125
6266.926150329,2985.08935546875,1077.6556396484375
6266.955564309,2989.051025390625,1076.1904296875
6266.95684216,2989.051025390625,1071.794921875
6267.003238479,2981.138427734375,1071.062255859375
6267.004552665,2969.347412109375,1071.062255859375
6267.058175489,2957.6494140625,1076.923095703125
6267.059777597,2953.7705078125,1082.05126953125
6267.060607277,2953.7705078125,1087.912109375
6267.093278804,2949.90185546875,1090.10986328125
6267.125976886,2953.7705078125,1092.3077392578125
6267.126892715,2953.7705078125,1093.040283203125
6267.159837342,2953.7705078125,1093.040283203125
6267.161355703,2953.7705078125,1093.77294921875
6267.193585189,2953.7705078125,1093.040283203125
6267.194383949,2953.7705078125,1093.77294921875
6267.226964944,2949.90185546875,1093.77294921875
6267.259350288,2965.437744140625,1097.4359130859375
6267.260624158,2981.138427734375,1093.040283203125
6267.297086689,2985.08935546875,1084.2490234375
6267.298053774,2981.138427734375,1078.3883056640625
6267.330632421,2985.08935546875,1076.923095703125
6267.33701524,2985.08935546875,1076.1904296875
6267.370642759,2989.051025390625,1075.4578857421875
6267.378085253,2989.051025390625,1071.794921875
6267.410878974,2989.051025390625,1069.5970458984375
6267.443206958,2989.051025390625,1068.864501953125
6267.444347437,2989.051025390625,1068.864501953125
6267.476904507,2989.051025390625,1068.864501953125
6267.478081522,2989.051025390625,1068.1318359375
6267.510674159,2989.051025390625,1068.1318359375
6267.518139722,2989.051025390625,1068.1318359375
6267.55070519,2993.023193359375,1068.1318359375
6267.603159913,2989.051025390625,1070.3297119140625
6267.604364063,2989.051025390625,1069.5970458984375
6267.605555612,2989.051025390625,1068.864501953125
6267.638212411,2985.08935546875,1068.1318359375
6267.639319272,2989.051025390625,1071.794921875
6267.672136763,2989.051025390625,1069.5970458984375
6267.673456558,2989.051025390625,1069.5970458984375
6267.699505045,2989.051025390625,1068.864501953125
6267.732044841,2989.051025390625,1068.864501953125
6267.738393214,2989.051025390625,1068.1318359375
6267.770743285,2993.023193359375,1068.1318359375
6267.772197442,2989.051025390625,1071.062255859375
6267.804381599,2993.023193359375,1069.5970458984375
6267.836991966,2989.051025390625,1071.062255859375
6267.838131098,2993.023193359375,1069.5970458984375
6267.89936629,2989.051025390625,1071.062255859375
6267.900604937,2989.051025390625,1069.5970458984375
6267.901782188,2993.023193359375,1068.864501953125
6267.934341915,2989.051025390625,1070.3297119140625
6267.935520414,2993.023193359375,1069.5970458984375
6267.968426093,2993.023193359375,1071.062255859375
6268.000618223,2989.051025390625,1071.794921875
6268.001791657,2993.023193359375,1070.3297119140625
6268.03440831,2985.08935546875,1071.794921875
6268.035595211,2989.051025390625,1073.2601318359375
6268.068191598,2985.08935546875,1070.3297119140625
6268.074356554,2989.051025390625,1072.5274658203125
6268.106909339,2989.051025390625,1070.3297119140625
6268.139455351,2989.051025390625,1069.5970458984375
6268.140607779,2989.051025390625,1068.864501953125
6268.205687459,2989.051025390625,1068.1318359375
6268.206859882,2985.08935546875,1068.864501953125
6268.208060663,2989.051025390625,1071.062255859375
6268.240721499,2985.08935546875,1069.5970458984375
6268.242401586,2989.051025390625,1072.5274658203125
6268.274392771,2985.08935546875,1070.3297119140625
6268.275593772,2989.051025390625,1072.5274658203125
6268.308275974,2993.023193359375,1070.3297119140625
6268.338187829,2989.051025390625,1071.794921875
6268.339322066,2989.051025390625,1069.5970458984375
6268.371971391,2989.051025390625,1068.864501953125
6268.379403511,2989.051025390625,1068.864501953125
6268.41190596,2989.051025390625,1068.1318359375
6268.413089906,2989.051025390625,1068.1318359375
6268.445627347,2989.051025390625,1068.864501953125
6268.498201539,2985.08935546875,1068.1318359375
6268.499418025,2989.051025390625,1071.794921875
6268.500883914,2989.051025390625,1069.5970458984375
6268.533098856,2989.051025390625,1069.5970458984375
6268.534333538,2989.051025390625,1068.864501953125
6268.566925545,2989.051025390625,1068.864501953125
6268.574788809,2989.051025390625,1068.864501953125
6268.606924504,2989.051025390625,1068.1318359375
6268.639424714,2989.051025390625,1068.1318359375
6268.640972268,2989.051025390625,1068.864501953125
6268.673368187,2985.08935546875,1068.1318359375
6268.674349405,2985.08935546875,1071.794921875
6268.707106703,2989.051025390625,1073.2601318359375
6268.71212171,2989.051025390625,1071.062255859375
6268.744361773,2989.051025390625,1069.5970458984375
6268.808139285,2985.08935546875,1068.864501953125
6268.809270384,2989.051025390625,1071.794921875
6268.811137269,2985.08935546875,1070.3297119140625
6268.843101809,2989.051025390625,1072.5274658203125
6268.844315847,2989.051025390625,1070.3297119140625
6268.876893595,2985.08935546875,1068.864501953125
6268.878069124,2985.08935546875,1072.5274658203125
6268.910645771,2989.051025390625,1073.2601318359375
6268.943116241,2985.08935546875,1070.3297119140625
6268.94469781,2985.08935546875,1073.2601318359375
6268.978113562,2989.051025390625,1073.99267578125
6268.97933647,2989.051025390625,1071.062255859375
6269.012018228,2989.051025390625,1069.5970458984375
6269.044560008,2989.051025390625,1068.864501953125
6269.045632806,2989.051025390625,1068.1318359375
6269.099358909,2989.051025390625,1068.1318359375
6269.100568271,2989.051025390625,1068.1318359375
6269.102002708,2989.051025390625,1068.1318359375
6269.134637558,2985.08935546875,1068.1318359375
6269.135596278,2989.051025390625,1071.794921875
6269.16818998,2985.08935546875,1069.5970458984375
6269.200626577,2985.08935546875,1072.5274658203125
6269.201838456,2989.051025390625,1073.99267578125
6269.234612411,2989.051025390625,1071.062255859375
6269.235611435,2985.08935546875,1069.5970458984375
6269.268187843,2989.051025390625,1072.5274658203125
6269.300667394,2985.08935546875,1070.3297119140625
6269.301830142,2989.051025390625,1072.5274658203125
6269.334395459,2989.051025390625,1070.3297119140625
6269.340702857,2989.051025390625,1069.5970458984375
6269.403375999,2989.051025390625,1068.864501953125
6269.404410482,2989.051025390625,1068.864501953125
6269.406113705,2989.051025390625,1068.864501953125
6269.438288718,2985.08935546875,1068.1318359375
6269.439371716,2985.08935546875,1071.794921875
6269.471948819,2989.051025390625,1073.99267578125
6269.47685286,2989.051025390625,1071.062255859375
6269.509350776,2989.051025390625,1069.5970458984375
6269.510580932,2989.051025390625,1068.864501953125
6269.543101031,2989.051025390625,1068.864501953125
6269.575608219,2989.051025390625,1068.864501953125
6269.57677474,2989.051025390625,1068.864501953125
6269.618357522,2985.08935546875,1068.864501953125
6269.619674465,2989.051025390625,1071.794921875
6269.652109484,2989.051025390625,1069.5970458984375
6269.701890322,2993.023193359375,1068.864501953125
6269.703018214,2993.023193359375,1071.062255859375
6269.704403665,2989.051025390625,1071.794921875
6269.737049192,2969.347412109375,1066.6666259765625
6269.738306716,2969.347412109375,1076.1904296875
6269.770875435,2973.267333984375,1080.5860595703125
6269.775645552,2981.138427734375,1079.853515625
6269.808312752,2985.08935546875,1078.3883056640625
6269.841877809,2989.051025390625,1076.1904296875
6269.843032448,2989.051025390625,1072.5274658203125
6269.8757304,2989.051025390625,1069.5970458984375
6269.877051262,2993.023193359375,1068.864501953125
6269.909449866,2985.08935546875,1071.062255859375
6269.941897335,2989.051025390625,1072.5274658203125
6269.943067327,2989.051025390625,1070.3297119140625
6269.999421239,2989.051025390625,1069.5970458984375
6270.001863843,2989.051025390625,1068.864501953125
6270.004347176,2989.051025390625,1068.864501953125
6270.036909474,2985.08935546875,1068.1318359375
6270.038356908,2989.051025390625,1071.794921875
6270.07210566,2989.051025390625,1069.5970458984375
6270.073116371,2989.051025390625,1069.5970458984375
6270.105691439,2989.051025390625,1068.864501953125
6270.138195045,2989.051025390625,1068.864501953125
6270.139329133,2989.051025390625,1068.1318359375
6270.171965149,2989.051025390625,1068.1318359375
6270.173214971,2989.051025390625,1068.1318359375
6270.205770305,2989.051025390625,1068.1318359375
6270.258365628,2989.051025390625,1068.1318359375
6270.259326969,2989.051025390625,1068.864501953125
6270.260801096,2989.051025390625,1068.864501953125
6270.300634364,2989.051025390625,1068.1318359375
6270.302115087,2989.051025390625,1068.1318359375
6270.334655473,2985.08935546875,1068.1318359375
6270.335786482,2989.051025390625,1071.794921875
6270.368380747,2989.051025390625,1069.5970458984375
6270.375620953,2989.051025390625,1068.864501953125
6270.408189418,2989.051025390625,1068.864501953125
6270.440653986,2989.051025390625,1068.864501953125
6270.441952137,2989.051025390625,1068.864501953125
6270.476997796,2985.08935546875,1068.1318359375
6270.478115816,2989.051025390625,1071.794921875
6270.510600897,2989.051025390625,1069.5970458984375
6270.511785391,2989.051025390625,1068.864501953125
6270.544426467,2989.051025390625,1068.864501953125
6270.595991405,2985.08935546875,1068.1318359375
6270.596797934,2989.051025390625,1071.794921875
6270.598055211,2989.051025390625,1069.5970458984375
6270.630692105,2989.051025390625,1068.864501953125
6270.631768692,2989.051025390625,1068.864501953125
6270.664425342,2989.051025390625,1068.864501953125
6270.696898165,2985.08935546875,1068.1318359375
6270.698048995,2989.051025390625,1071.794921875
6270.730670816,2989.051025390625,1070.3297119140625
6270.735645479,2989.051025390625,1068.864501953125
6270.768145739,2989.051025390625,1068.864501953125
6270.800774463,2989.051025390625,1068.864501953125
6270.802151254,2989.051025390625,1068.1318359375
6270.834516382,2989.051025390625,1068.1318359375
6270.835943042,2985.08935546875,1068.864501953125
6270.90825283,2989.051025390625,1071.794921875
6270.909390108,2989.051025390625,1069.5970458984375
6270.93588219,2989.051025390625,1068.864501953125
6270.936876252,2989.051025390625,1068.864501953125
6270.938496311,2985.08935546875,1068.1318359375
6270.949671364,2989.051025390625,1071.794921875
6270.982072408,2989.051025390625,1069.5970458984375
6271.014439333,2989.051025390625,1069.5970458984375
6271.015593285,2993.023193359375,1068.864501953125
6271.048418635,2989.051025390625,1071.062255859375
6271.080761461,2985.08935546875,1069.5970458984375
6271.081803889,2989.051025390625,1071.794921875
6271.114646607,2989.051025390625,1069.5970458984375
6271.115575775,2989.051025390625,1068.864501953125
6271.148487384,2989.051025390625,1068.1318359375
6271.149362684,2989.051025390625,1068.1318359375
6271.198156018,2989.051025390625,1068.1318359375
6271.199669964,2985.08935546875,1068.1318359375
6271.232157627,2985.08935546875,1071.062255859375
6271.233098042,2985.08935546875,1073.2601318359375
6271.265786734,2985.08935546875,1073.99267578125
6271.298304896,2985.08935546875,1073.99267578125
6271.299417724,2985.08935546875,1073.99267578125
6271.331941272,2985.08935546875,1073.99267578125
6271.333072618,2985.08935546875,1074.7252197265625
6271.365837213,2985.08935546875,1073.99267578125
6271.399660975,2985.08935546875,1074.7252197265625
6271.401078487,2985.08935546875,1074.7252197265625
6271.43350477,2985.08935546875,1074.7252197265625
6271.434387384,2985.08935546875,1074.7252197265625
6271.503200417,2985.08935546875,1074.7252197265625
6271.50448384,2985.08935546875,1074.7252197265625
6271.505911672,2985.08935546875,1074.7252197265625
6271.538358048,2985.08935546875,1074.7252197265625
6271.539468859,2985.08935546875,1074.7252197265625
6271.572547905,2985.08935546875,1074.7252197265625
6271.573262006,2981.138427734375,1074.7252197265625
6271.605824401,2985.08935546875,1074.7252197265625
6271.638301745,2981.138427734375,1074.7252197265625
6271.639492261,2985.08935546875,1075.4578857421875
6271.672082409,2985.08935546875,1074.7252197265625
6271.674479652,2985.08935546875,1074.7252197265625
6271.707053224,2985.08935546875,1074.7252197265625
6271.739561985,2981.138427734375,1075.4578857421875
6271.74071183,2981.138427734375,1075.4578857421875
6271.79598359,2985.08935546875,1075.4578857421875
6271.796976324,2981.138427734375,1075.4578857421875
6271.798192069,2985.08935546875,1075.4578857421875
6271.830754005,2985.08935546875,1075.4578857421875
6271.83196322,2985.08935546875,1074.7252197265625
6271.864743254,2985.08935546875,1074.7252197265625
6271.897032979,2985.08935546875,1074.7252197265625
6271.898197144,2985.08935546875,1074.7252197265625
6271.930821922,2985.08935546875,1073.99267578125
6271.932313603,2985.08935546875,1074.7252197265625
6271.96472379,2985.08935546875,1074.7252197265625
6271.997033428,2985.08935546875,1074.7252197265625
6271.99827405,2985.08935546875,1074.7252197265625
6272.030879905,2985.08935546875,1074.7252197265625
6272.038269252,2985.08935546875,1074.7252197265625
6272.104606792,2981.138427734375,1074.7252197265625
6272.107209714,2985.08935546875,1075.4578857421875
6272.108260593,2985.08935546875,1074.7252197265625
6272.14078763,2985.08935546875,1074.7252197265625
6272.141951128,2985.08935546875,1074.7252197265625
6272.178489376,2981.138427734375,1073.99267578125
6272.179526462,2981.138427734375,1075.4578857421875
6272.212211159,2981.138427734375,1075.4578857421875
6272.213209292,2981.138427734375,1075.4578857421875
6272.246004108,2981.138427734375,1075.4578857421875
6272.250923059,2981.138427734375,1075.4578857421875
6272.284510306,2981.138427734375,1075.4578857421875
6272.316977128,2981.138427734375,1076.1904296875
6272.318211139,2981.138427734375,1075.4578857421875
6272.350965914,2981.138427734375,1075.4578857421875
6272.355819701,2981.138427734375,1076.1904296875
6272.398372443,2977.197509765625,1076.1904296875
6272.399514089,2981.138427734375,1078.3883056640625
6272.432425883,2977.197509765625,1076.923095703125
6272.434949153,2981.138427734375,1079.853515625
6272.467069172,2981.138427734375,1077.6556396484375
6272.474494265,2981.138427734375,1076.923095703125
6272.506993448,2981.138427734375,1076.1904296875
6272.539526425,2977.197509765625,1076.1904296875
6272.540721987,2977.197509765625,1079.120849609375
6272.573308721,2977.197509765625,1080.5860595703125
6272.574551234,2977.197509765625,1081.3187255859375
6272.607061406,2981.138427734375,1081.3187255859375
6272.614558922,2977.197509765625,1078.3883056640625
6272.64727398,2977.197509765625,1080.5860595703125
6272.709772318,2977.197509765625,1081.3187255859375
6272.711168602,2977.197509765625,1082.05126953125
6272.712374572,2977.197509765625,1082.05126953125
6272.713283833,2977.197509765625,1082.05126953125
6272.745798259,2981.138427734375,1082.05126953125
6272.752421756,2977.197509765625,1078.3883056640625
6272.78458023,2977.197509765625,1080.5860595703125
6272.818231177,2977.197509765625,1081.3187255859375
6272.81944419,2977.197509765625,1082.05126953125
6272.851994225,2977.197509765625,1082.05126953125
6272.853244869,2973.267333984375,1081.3187255859375
6272.885736961,2946.043212890625,1071.794921875
6272.891002684,2953.7705078125,1087.912109375
6272.923283273,2946.043212890625,1091.5750732421875
6272.955785725,2949.90185546875,1096.7032470703125
6272.956882972,2949.90185546875,1094.5054931640625
6272.998329899,2942.194580078125,1094.5054931640625
6272.999506933,2946.043212890625,1098.16845703125
6273.032016414,2953.7705078125,1101.83154296875
6273.033161928,2961.53857421875,1098.901123046875
6273.066087384,2965.437744140625,1095.970703125
6273.073245805,2969.347412109375,1090.842529296875
6273.105879643,2969.347412109375,1087.179443359375
6273.13839779,2973.267333984375,1085.7142333984375
6273.139469843,2973.267333984375,1082.05126953125
6273.172020728,2969.347412109375,1079.853515625
6273.173209418,2973.267333984375,1082.05126953125
6273.205929724,2973.267333984375,1079.853515625
6273.210715762,2969.347412109375,1078.3883056640625
6273.243301995,2973.267333984375,1081.3187255859375
6273.3007918,2969.347412109375,1079.853515625
6273.302051153,2973.267333984375,1082.05126953125
6273.303178608,2973.267333984375,1079.853515625
6273.336091128,2969.347412109375,1078.3883056640625
6273.33699773,2969.347412109375,1081.3187255859375
6273.36964021,2969.347412109375,1082.783935546875
6273.370752155,2969.347412109375,1082.783935546875
6273.403302903,2969.347412109375,1083.5164794921875
6273.458336694,2965.437744140625,1084.2490234375
6273.45945046,2969.347412109375,1084.2490234375
6273.460693785,2969.347412109375,1084.2490234375
6273.493310005,2969.347412109375,1083.5164794921875
6273.494435528,2969.347412109375,1084.2490234375
6273.527211946,2969.347412109375,1084.2490234375
6273.528391528,2969.347412109375,1084.2490234375
6273.560797744,2965.437744140625,1084.2490234375
6273.59575416,2969.347412109375,1084.2490234375
6273.597010623,2965.437744140625,1084.2490234375
6273.629478738,2965.437744140625,1084.981689453125
6273.634674282,2965.437744140625,1084.981689453125
6273.66704981,2965.437744140625,1085.7142333984375
6273.668232233,2965.437744140625,1084.981689453125
6273.700776037,2965.437744140625,1084.981689453125
6273.733448792,2965.437744140625,1084.981689453125
6273.734544824,2965.437744140625,1084.981689453125
6273.767054605,2965.437744140625,1084.981689453125
6273.799605504,2965.437744140625,1085.7142333984375
6273.800698687,2965.437744140625,1085.7142333984375
6273.833759456,2969.347412109375,1084.981689453125
6273.834497946,2969.347412109375,1084.981689453125
6273.869742065,2965.437744140625,1084.2490234375
6273.870761573,2965.437744140625,1084.981689453125
6273.903313409,2969.347412109375,1084.981689453125
6273.935982634,2969.347412109375,1084.2490234375
6273.937330366,2965.437744140625,1084.2490234375
6273.969762993,2969.347412109375,1084.2490234375
6273.974781782,2969.347412109375,1084.2490234375
6274.007035138,2969.347412109375,1084.2490234375
6274.013493934,2969.347412109375,1084.2490234375
6274.045764315,2969.347412109375,1084.2490234375
6274.053231486,2969.347412109375,1084.2490234375
6274.098275112,2969.347412109375,1084.2490234375
6274.09970286,2969.347412109375,1084.2490234375
6274.132608189,2965.437744140625,1084.2490234375
6274.133224432,2965.437744140625,1084.981689453125
6274.200955494,2965.437744140625,1084.981689453125
6274.202005615,2969.347412109375,1085.7142333984375
6274.203526859,2969.347412109375,1084.981689453125
6274.235859325,2965.437744140625,1083.5164794921875
6274.237035098,2969.347412109375,1084.981689453125
6274.269587893,2965.437744140625,1084.2490234375
6274.277270128,2969.347412109375,1084.981689453125
6274.309576215,2969.347412109375,1084.2490234375
6274.310712198,2969.347412109375,1084.2490234375
6274.343520655,2965.437744140625,1083.5164794921875
6274.376014254,2969.347412109375,1084.2490234375
6274.377429646,2969.347412109375,1084.2490234375
6274.409773964,2965.437744140625,1083.5164794921875
6274.415790623,2969.347412109375,1084.981689453125
6274.448296468,2969.347412109375,1084.2490234375
6274.455761614,2973.267333984375,1083.5164794921875
6274.508387686,2965.437744140625,1080.5860595703125
6274.509384124,2965.437744140625,1082.783935546875
6274.510903998,2969.347412109375,1084.2490234375
6274.54337178,2969.347412109375,1084.2490234375
6274.575787026,2965.437744140625,1084.2490234375
6274.57693466,2965.437744140625,1084.981689453125
6274.609812332,2965.437744140625,1084.981689453125
6274.614565061,2969.347412109375,1084.981689453125
6274.64706046,2969.347412109375,1084.981689453125
6274.653252791,2965.437744140625,1084.2490234375
6274.686011558,2969.347412109375,1084.981689453125
6274.738631987,2969.347412109375,1084.2490234375
6274.739514204,2969.347412109375,1084.2490234375
6274.74064996,2969.347412109375,1084.2490234375
6274.798485842,2965.437744140625,1083.5164794921875
6274.799439696,2965.437744140625,1084.2490234375
6274.800659007,2969.347412109375,1084.981689453125
6274.83341863,2965.437744140625,1084.2490234375
6274.834452718,2965.437744140625,1084.981689453125
6274.867059775,2965.437744140625,1084.981689453125
6274.873624652,2965.437744140625,1084.981689453125
6274.90575696,2965.437744140625,1084.981689453125
6274.938465443,2965.437744140625,1084.981689453125
6274.939551433,2965.437744140625,1084.981689453125
6274.971995289,2965.437744140625,1084.981689453125
6274.973313949,2965.437744140625,1084.981689453125
6275.007070595,2965.437744140625,1085.7142333984375
6275.008338548,2965.437744140625,1084.981689453125
6275.040753505,2965.437744140625,1084.981689453125
6275.098532363,2965.437744140625,1084.981689453125
6275.09952564,2965.437744140625,1084.981689453125
6275.101105649,2965.437744140625,1084.981689453125
6275.133426781,2961.53857421875,1085.7142333984375
6275.13442932,2961.53857421875,1088.6446533203125
6275.167080385,2961.53857421875,1090.10986328125
6275.16827829,2961.53857421875,1090.842529296875
6275.200962475,2961.53857421875,1090.842529296875
6275.233448462,2961.53857421875,1091.5750732421875
6275.234436717,2961.53857421875,1091.5750732421875
6275.267062743,2965.437744140625,1091.5750732421875
6275.299579101,2961.53857421875,1087.912109375
6275.300816787,2961.53857421875,1090.10986328125
6275.333581312,2961.53857421875,1090.842529296875
6275.334528651,2965.437744140625,1090.842529296875
6275.40725397,2961.53857421875,1087.912109375
6275.408369557,2961.53857421875,1090.10986328125
6275.409491204,2961.53857421875,1090.842529296875
6275.417103409,2961.53857421875,1091.5750732421875
6275.449584034,2961.53857421875,1090.842529296875
6275.450659419,2965.437744140625,1091.5750732421875
6275.483432344,2961.53857421875,1087.912109375
6275.515937017,2961.53857421875,1090.10986328125
6275.517001367,2965.437744140625,1090.842529296875
6275.549478858,2957.6494140625,1087.912109375
6275.550738097,2957.6494140625,1087.912109375
6275.583470788,2961.53857421875,1087.912109375
6275.589738843,2961.53857421875,1089.3773193359375
6275.622258144,2961.53857421875,1090.842529296875
6275.654760586,2957.6494140625,1091.5750732421875
6275.655812541,2961.53857421875,1089.3773193359375
6275.695779273,2961.53857421875,1090.10986328125
6275.697026336,2961.53857421875,1090.842529296875
6275.729550582,2961.53857421875,1090.842529296875
6275.736021072,2957.6494140625,1091.5750732421875
6275.768441221,2961.53857421875,1089.3773193359375
6275.773424172,2957.6494140625,1090.842529296875
6275.805996608,2957.6494140625,1088.6446533203125
6275.81078298,2961.53857421875,1087.912109375
6275.843690107,2957.6494140625,1090.10986328125
6275.875957574,2957.6494140625,1088.6446533203125
6275.876940417,2957.6494140625,1087.912109375
6275.909510113,2961.53857421875,1087.179443359375
6275.910651384,2961.53857421875,1089.3773193359375
6275.943699305,2961.53857421875,1090.842529296875
6276.015811903,2957.6494140625,1091.5750732421875
6276.016905179,2957.6494140625,1089.3773193359375
6276.018264694,2961.53857421875,1087.912109375
6276.029728283,2957.6494140625,1090.10986328125
6276.034762071,2961.53857421875,1088.6446533203125
6276.068402191,2961.53857421875,1090.10986328125
6276.069518316,2961.53857421875,1090.842529296875
6276.102392535,2961.53857421875,1090.842529296875
6276.134883474,2961.53857421875,1091.5750732421875
6276.135806755,2961.53857421875,1091.5750732421875
6276.168623367,2961.53857421875,1090.842529296875
6276.173380651,2961.53857421875,1091.5750732421875
6276.206305888,2961.53857421875,1091.5750732421875
6276.238661132,2961.53857421875,1091.5750732421875
6276.23949816,2961.53857421875,1091.5750732421875
6276.297125979,2961.53857421875,1091.5750732421875
6276.298603717,2961.53857421875,1091.5750732421875
6276.299664843,2961.53857421875,1091.5750732421875
6276.332185962,2961.53857421875,1091.5750732421875
6276.333328896,2961.53857421875,1091.5750732421875
6276.366105117,2961.53857421875,1091.5750732421875
6276.398444672,2961.53857421875,1091.5750732421875
6276.399570626,2961.53857421875,1091.5750732421875
6276.432208522,2957.6494140625,1090.842529296875
6276.433522274,2961.53857421875,1089.3773193359375
6276.465970143,2961.53857421875,1090.10986328125
6276.498652124,2961.53857421875,1091.5750732421875
6276.499543635,2961.53857421875,1091.5750732421875
6276.532143232,2957.6494140625,1091.5750732421875
6276.533292965,2961.53857421875,1089.3773193359375
6276.599777722,2961.53857421875,1090.842529296875
6276.600937771,2961.53857421875,1090.842529296875
6276.602182293,2961.53857421875,1091.5750732421875
6276.658728225,2953.7705078125,1090.842529296875
6276.660917717,2957.6494140625,1092.3077392578125
6276.662103544,2957.6494140625,1089.3773193359375
6276.694722788,2953.7705078125,1088.6446533203125
6276.695941804,2961.53857421875,1091.5750732421875
6276.728450914,2957.6494140625,1091.5750732421875
6276.729595883,2961.53857421875,1089.3773193359375
6276.762422112,2961.53857421875,1090.842529296875
6276.794632258,2957.6494140625,1090.842529296875
6276.795836438,2961.53857421875,1089.3773193359375
6276.828452082,2957.6494140625,1090.10986328125
6276.833642928,2957.6494140625,1089.3773193359375
6276.898662454,2957.6494140625,1087.912109375
6276.899955432,2961.53857421875,1087.179443359375
6276.901205231,2961.53857421875,1089.3773193359375
6276.933439882,2957.6494140625,1090.842529296875
6276.934567401,2961.53857421875,1088.6446533203125
6276.968616448,2957.6494140625,1090.842529296875
6276.973382574,2961.53857421875,1087.912109375
6277.005887204,2961.53857421875,1090.10986328125
6277.01366155,2961.53857421875,1090.842529296875
6277.045853009,2961.53857421875,1091.5750732421875
6277.047402891,2961.53857421875,1091.5750732421875
6277.079892391,2961.53857421875,1091.5750732421875
6277.112185632,2957.6494140625,1091.5750732421875
6277.113318486,2961.53857421875,1088.6446533203125
6277.146310585,2961.53857421875,1090.842529296875
6277.201161757,2961.53857421875,1090.842529296875
6277.202585221,2961.53857421875,1090.842529296875
6277.203403245,2961.53857421875,1091.5750732421875
6277.235950908,2961.53857421875,1091.5750732421875
6277.238612635,2961.53857421875,1091.5750732421875
6277.27092866,2957.6494140625,1091.5750732421875
6277.272060515,2957.6494140625,1089.3773193359375
6277.302140046,2961.53857421875,1087.912109375
6277.334843385,2961.53857421875,1090.10986328125
6277.335918303,2961.53857421875,1090.842529296875
6277.368614767,2961.53857421875,1091.5750732421875
6277.369554264,2961.53857421875,1091.5750732421875
6277.402381276,2961.53857421875,1091.5750732421875
6277.434883243,2961.53857421875,1091.5750732421875
6277.4359181,2961.53857421875,1091.5750732421875
6277.501117555,2961.53857421875,1091.5750732421875
6277.502139236,2961.53857421875,1091.5750732421875
6277.503295057,2961.53857421875,1091.5750732421875
6277.510941562,2961.53857421875,1091.5750732421875
6277.543418812,2961.53857421875,1091.5750732421875
6277.548325454,2961.53857421875,1091.5750732421875
6277.581142564,2961.53857421875,1091.5750732421875
6277.613619657,2961.53857421875,1091.5750732421875
6277.614657966,2961.53857421875,1091.5750732421875
6277.647378112,2961.53857421875,1090.842529296875
6277.652125142,2961.53857421875,1091.5750732421875
6277.684602173,2961.53857421875,1091.5750732421875
6277.685778272,2961.53857421875,1091.5750732421875
6277.718410768,2961.53857421875,1091.5750732421875
6277.750856771,2957.6494140625,1091.5750732421875
6277.752654719,2961.53857421875,1089.3773193359375
6277.804900481,2961.53857421875,1090.842529296875
6277.805845386,2961.53857421875,1090.842529296875
6277.838671182,2957.6494140625,1091.5750732421875
6277.839634544,2961.53857421875,1089.3773193359375
6277.872471125,2957.6494140625,1090.842529296875
6277.873807363,2961.53857421875,1088.6446533203125
6277.905920822,2961.53857421875,1090.10986328125
6277.910877503,2961.53857421875,1090.842529296875
6277.938728282,2961.53857421875,1091.5750732421875
6277.970980234,2961.53857421875,1091.5750732421875
6277.973447842,2961.53857421875,1091.5750732421875
6278.005905484,2961.53857421875,1091.5750732421875
6278.010884559,2957.6494140625,1091.5750732421875
6278.043482917,2961.53857421875,1089.3773193359375
6278.101148971,2957.6494140625,1090.842529296875
6278.10214002,2961.53857421875,1088.6446533203125
6278.103647428,2961.53857421875,1090.10986328125
6278.135901565,2961.53857421875,1090.842529296875
6278.137014625,2961.53857421875,1091.5750732421875
6278.169752347,2961.53857421875,1090.842529296875
6278.170776677,2961.53857421875,1091.5750732421875
6278.203632232,2965.437744140625,1091.5750732421875
6278.210930942,2965.437744140625,1087.912109375
6278.243406973,2965.437744140625,1087.179443359375
6278.275864407,2965.437744140625,1085.7142333984375
6278.277200865,2965.437744140625,1085.7142333984375
6278.309939788,2961.53857421875,1084.981689453125
6278.315924794,2961.53857421875,1088.6446533203125
6278.348419347,2961.53857421875,1090.10986328125
6278.349553855,2965.437744140625,1090.842529296875
6278.403539469,2965.437744140625,1087.912109375
6278.404600382,2965.437744140625,1086.4468994140625
6278.43755967,2965.437744140625,1085.7142333984375
6278.43835963,2965.437744140625,1084.981689453125
6278.471086807,2961.53857421875,1084.981689453125
6278.472045916,2965.437744140625,1088.6446533203125
6278.504645648,2965.437744140625,1087.179443359375
6278.505777223,2965.437744140625,1085.7142333984375
6278.538487618,2965.437744140625,1085.7142333984375
6278.578415974,2961.53857421875,1084.981689453125
6278.579549578,2965.437744140625,1088.6446533203125
6278.612373927,2957.6494140625,1086.4468994140625
6278.613611098,2965.437744140625,1086.4468994140625
6278.647348806,2965.437744140625,1086.4468994140625
6278.648424517,2961.53857421875,1085.7142333984375
6278.700620393,2961.53857421875,1087.912109375
6278.700881771,2965.437744140625,1090.10986328125
6278.733522057,2961.53857421875,1087.179443359375
6278.734616793,2965.437744140625,1089.3773193359375
6278.767175318,2961.53857421875,1087.179443359375
6278.772124118,2961.53857421875,1089.3773193359375
6278.804684181,2961.53857421875,1090.842529296875
6278.805872696,2961.53857421875,1091.5750732421875
6278.838391166,2965.437744140625,1091.5750732421875
6278.870942046,2957.6494140625,1087.912109375
6278.872112296,2965.437744140625,1087.912109375
6278.904820123,2961.53857421875,1086.4468994140625
6278.912592087,2965.437744140625,1089.3773193359375
6278.944875282,2965.437744140625,1087.179443359375
6278.946219532,2965.437744140625,1086.4468994140625
6279.000962167,2961.53857421875,1085.7142333984375
6279.002380631,2965.437744140625,1089.3773193359375
6279.028413169,2965.437744140625,1087.179443359375
6279.029587582,2965.437744140625,1085.7142333984375
6279.064872136,2961.53857421875,1084.981689453125
6279.097137932,2961.53857421875,1088.6446533203125
6279.098304102,2961.53857421875,1090.10986328125
6279.131026237,2961.53857421875,1090.842529296875
6279.132430066,2961.53857421875,1091.5750732421875
6279.16479203,2965.437744140625,1090.842529296875
6279.169648329,2965.437744140625,1087.912109375
6279.218626691,2961.53857421875,1086.4468994140625
6279.219635953,2965.437744140625,1089.3773193359375
6279.252430409,2961.53857421875,1087.179443359375
6279.253393703,2961.53857421875,1089.3773193359375
6279.299853738,2965.437744140625,1090.10986328125
6279.300909005,2957.6494140625,1087.912109375
6279.33362549,2965.437744140625,1087.179443359375
6279.334660341,2965.437744140625,1086.4468994140625
6279.36718831,2961.53857421875,1085.7142333984375
6279.368330073,2965.437744140625,1088.6446533203125
6279.401148356,2961.53857421875,1087.179443359375
6279.433465387,2961.53857421875,1089.3773193359375
6279.434574642,2961.53857421875,1090.842529296875
6279.467305555,2961.53857421875,1090.842529296875
6279.46839229,2961.53857421875,1090.842529296875
6279.501066502,2961.53857421875,1091.5750732421875
6279.533636904,2961.53857421875,1091.5750732421875
6279.53499406,2961.53857421875,1091.5750732421875
6279.59589012,2961.53857421875,1091.5750732421875
6279.598357248,2961.53857421875,1091.5750732421875
6279.599555086,2961.53857421875,1091.5750732421875
6279.632203002,2961.53857421875,1090.842529296875
6279.633475988,2961.53857421875,1091.5750732421875
6279.667213442,2961.53857421875,1091.5750732421875
6279.668381085,2965.437744140625,1091.5750732421875
6279.701202282,2961.53857421875,1087.912109375
6279.733632048,2961.53857421875,1090.10986328125
6279.73460752,2961.53857421875,1090.842529296875
6279.767256415,2961.53857421875,1091.5750732421875
6279.769712902,2961.53857421875,1091.5750732421875
6279.802302297,2961.53857421875,1091.5750732421875
6279.858540468,2957.6494140625,1091.5750732421875
6279.859675421,2961.53857421875,1089.3773193359375
6279.860845535,2961.53857421875,1090.10986328125
6279.899610103,2957.6494140625,1090.842529296875
6279.900854956,2961.53857421875,1088.6446533203125
6279.908498017,2961.53857421875,1090.10986328125
6279.940889505,2961.53857421875,1090.842529296875
6279.97350813,2961.53857421875,1091.5750732421875
6279.974612488,2961.53857421875,1091.5750732421875
6280.007214692,2961.53857421875,1091.5750732421875
6280.008393464,2961.53857421875,1091.5750732421875
6280.04113143,2961.53857421875,1091.5750732421875
6280.07334908,2957.6494140625,1091.5750732421875
6280.074566976,2957.6494140625,1089.3773193359375
6280.107433851,2957.6494140625,1088.6446533203125
6280.108378565,2957.6494140625,1087.912109375
6280.141121216,2957.6494140625,1087.912109375
6280.198489882,2957.6494140625,1087.179443359375
6280.199857783,2961.53857421875,1087.179443359375
6280.200907468,2957.6494140625,1089.3773193359375
6280.233664098,2961.53857421875,1088.6446533203125
6280.234707352,2961.53857421875,1090.10986328125
6280.267379505,2961.53857421875,1090.842529296875
6280.268367613,2961.53857421875,1091.5750732421875
6280.30096931,2961.53857421875,1091.5750732421875
6280.333620167,2961.53857421875,1091.5750732421875
6280.334572902,2965.437744140625,1091.5750732421875
6280.367189292,2957.6494140625,1087.912109375
6280.372096655,2961.53857421875,1087.179443359375
6280.404601387,2961.53857421875,1089.3773193359375
6280.405773872,2961.53857421875,1090.842529296875
6280.438415106,2965.437744140625,1091.5750732421875
6280.510914288,2957.6494140625,1087.912109375
6280.51210053,2961.53857421875,1087.912109375
6280.513317321,2961.53857421875,1090.10986328125
6280.524634562,2961.53857421875,1090.842529296875
6280.557398198,2961.53857421875,1090.842529296875
6280.558846398,2965.437744140625,1091.5750732421875
6280.591305036,2961.53857421875,1087.912109375
6280.594613383,2961.53857421875,1090.10986328125
6280.628659598,2961.53857421875,1090.842529296875
6280.629645265,2961.53857421875,1091.5750732421875
6280.662172387,2961.53857421875,1091.5750732421875
6280.694969098,2961.53857421875,1091.5750732421875
6280.695884791,2957.6494140625,1091.5750732421875
6280.728574471,2957.6494140625,1089.3773193359375
6280.729592378,2961.53857421875,1088.6446533203125
6280.762185472,2961.53857421875,1089.3773193359375
6280.799898097,2961.53857421875,1090.842529296875
6280.80086895,2957.6494140625,1090.842529296875
6280.834811013,2961.53857421875,1089.3773193359375
6280.835804418,2961.53857421875,1090.10986328125
6280.868410241,2957.6494140625,1090.842529296875
6280.869913342,2957.6494140625,1088.6446533203125
6280.903362182,2961.53857421875,1087.912109375
6280.904529196,2961.53857421875,1089.3773193359375
6280.937291329,2961.53857421875,1090.10986328125
6280.96969823,2957.6494140625,1090.842529296875
6280.970788951,2957.6494140625,1089.3773193359375
6281.003352184,2961.53857421875,1087.912109375
6281.036088944,2957.6494140625,1090.10986328125
6281.037193103,2957.6494140625,1088.6446533203125
6281.094610951,2953.7705078125,1087.912109375
6281.096323993,2957.6494140625,1090.842529296875
6281.097470238,2957.6494140625,1089.3773193359375
6281.138581511,2957.6494140625,1087.912109375
6281.139617351,2957.6494140625,1087.912109375
6281.172254834,2957.6494140625,1087.179443359375
6281.173271498,2957.6494140625,1087.912109375
6281.206178046,2953.7705078125,1087.179443359375
6281.207186995,2957.6494140625,1090.842529296875
6281.240004348,2957.6494140625,1088.6446533203125
6281.272258637,2957.6494140625,1087.912109375
6281.273314377,2957.6494140625,1087.179443359375
6281.306232826,2957.6494140625,1087.179443359375
6281.313507421,2957.6494140625,1087.179443359375
6281.346297276,2957.6494140625,1087.179443359375
6281.347235772,2957.6494140625,1087.179443359375
6281.401020738,2957.6494140625,1087.179443359375
6281.402213528,2957.6494140625,1087.179443359375
6281.43483215,2957.6494140625,1087.179443359375
6281.435861944,2953.7705078125,1087.179443359375
6281.468629908,2953.7705078125,1090.10986328125
6281.469597926,2957.6494140625,1092.3077392578125
6281.502282273,2957.6494140625,1089.3773193359375
6281.508575158,2953.7705078125,1088.6446533203125
6281.542446578,2957.6494140625,1090.842529296875
6281.551004728,2957.6494140625,1089.3773193359375
6281.583544584,2957.6494140625,1087.912109375
6281.591090044,2953.7705078125,1087.912109375
6281.623545739,2957.6494140625,1090.842529296875
6281.656294949,2957.6494140625,1088.6446533203125
6281.657571428,2957.6494140625,1087.912109375
6281.701060298,2953.7705078125,1087.912109375
6281.702215941,2957.6494140625,1090.842529296875
6281.704995074,2957.6494140625,1088.6446533203125
6281.737306425,2957.6494140625,1087.912109375
6281.779900174,2953.7705078125,1087.912109375
6281.78098947,2953.7705078125,1087.912109375
6281.813731003,2953.7705078125,1230.03662109375
6281.814717054,2953.7705078125,1158.24169921875
6281.839758939,2953.7705078125,1124.5421142578125
6281.872306763,2957.6494140625,1108.4249267578125
6281.873402141,2957.6494140625,1097.4359130859375
6281.905962727,2953.7705078125,1091.5750732421875
6281.907594755,2953.7705078125,1093.040283203125
6281.939799169,2957.6494140625,1093.040283203125
6281.972222455,2957.6494140625,1090.10986328125
6281.97376726,2953.7705078125,1088.6446533203125
6282.008564413,2953.7705078125,1091.5750732421875
6282.009817357,2953.7705078125,1092.3077392578125
6282.043500925,2953.7705078125,1093.040283203125
6282.051019897,2949.90185546875,1093.77294921875
6282.083749756,2957.6494140625,1094.5054931640625
6282.088845354,2949.90185546875,1090.842529296875
6282.1223105,2953.7705078125,1093.040283203125
6282.156032187,2953.7705078125,1093.040283203125
6282.157141741,2953.7705078125,1093.040283203125
6282.189880547,2953.7705078125,1093.040283203125
6282.190980067,2953.7705078125,1093.77294921875
6282.22378067,2949.90185546875,1093.77294921875
6282.22893258,2953.7705078125,1094.5054931640625
6282.261131845,2953.7705078125,1094.5054931640625
6282.298482149,2953.7705078125,1093.77294921875
6282.299946626,2953.7705078125,1093.77294921875
6282.332242023,2953.7705078125,1093.77294921875
6282.33348485,2953.7705078125,1093.77294921875
6282.365998391,2953.7705078125,1093.77294921875
6282.367510956,2946.043212890625,1093.77294921875
6282.418739262,2949.90185546875,1097.4359130859375
6282.419750351,2949.90185546875,1095.970703125
6282.452422086,2953.7705078125,1095.238037109375
6282.45346042,2953.7705078125,1094.5054931640625
6282.486036767,2953.7705078125,1093.77294921875
6282.487198672,2957.6494140625,1093.77294921875
6282.519885304,2957.6494140625,1090.10986328125
6282.552525979,2953.7705078125,1088.6446533203125
6282.553534624,2953.7705078125,1091.5750732421875
6282.599965475,2953.7705078125,1092.3077392578125
6282.601373239,2953.7705078125,1093.040283203125
6282.633628604,2953.7705078125,1093.040283203125
6282.634745335,2953.7705078125,1093.77294921875
6282.667492773,2949.90185546875,1093.040283203125
6282.668510667,2953.7705078125,1093.77294921875
6282.701171811,2953.7705078125,1093.77294921875
6282.708555508,2953.7705078125,1093.77294921875
6282.741061248,2953.7705078125,1093.040283203125
6282.773599295,2953.7705078125,1093.77294921875
6282.774694982,2953.7705078125,1093.040283203125
6282.807329293,2949.90185546875,1093.040283203125
6282.808461256,2953.7705078125,1094.5054931640625
6282.841231305,2953.7705078125,1093.77294921875
6282.899997328,2953.7705078125,1093.040283203125
6282.901049809,2953.7705078125,1093.77294921875
6282.902187166,2953.7705078125,1093.040283203125
6282.934829036,2953.7705078125,1093.77294921875
6282.935947986,2957.6494140625,1093.040283203125
6282.96865645,2953.7705078125,1090.10986328125
6282.970003039,2953.7705078125,1092.3077392578125
6283.002286535,2953.7705078125,1093.040283203125
6283.007310439,2949.90185546875,1093.040283203125
6283.058722876,2953.7705078125,1093.77294921875
6283.059751691,2953.7705078125,1093.77294921875
6283.078591478,2953.7705078125,1093.77294921875
6283.111070426,2953.7705078125,1093.77294921875
6283.112292965,2953.7705078125,1093.77294921875
6283.144833853,2953.7705078125,1093.040283203125
6283.145995489,2953.7705078125,1093.77294921875
6283.202418853,2953.7705078125,1093.77294921875
6283.203428877,2953.7705078125,1093.77294921875
6283.209840023,2953.7705078125,1093.77294921875
6283.242237072,2953.7705078125,1093.77294921875
6283.27507986,2953.7705078125,1093.77294921875
6283.276071525,2949.90185546875,1093.77294921875
6283.308505809,2949.90185546875,1093.77294921875
6283.310094178,2953.7705078125,1094.5054931640625
6283.342916197,2949.90185546875,1093.77294921875
6283.347250315,2953.7705078125,1094.5054931640625
6283.37978497,2953.7705078125,1093.77294921875
6283.412248227,2953.7705078125,1093.77294921875
6283.413430481,2953.7705078125,1093.77294921875
6283.446088279,2949.90185546875,1093.77294921875
6283.447269203,2953.7705078125,1094.5054931640625
6283.501234359,2953.7705078125,1093.77294921875
6283.502305074,2949.90185546875,1093.77294921875
6283.508577692,2953.7705078125,1093.77294921875
6283.541245356,2949.90185546875,1093.77294921875
6283.573751894,2953.7705078125,1094.5054931640625
6283.574828863,2953.7705078125,1093.77294921875
6283.607557495,2949.90185546875,1093.77294921875
6283.609732519,2953.7705078125,1094.5054931640625
6283.642430798,2949.90185546875,1093.77294921875
6283.643465872,2949.90185546875,1094.5054931640625
6283.698576822,2949.90185546875,1094.5054931640625
6283.699703531,2949.90185546875,1094.5054931640625
6283.732219525,2949.90185546875,1094.5054931640625
6283.734745954,2949.90185546875,1095.238037109375
6283.801127795,2949.90185546875,1094.5054931640625
6283.802436152,2953.7705078125,1095.238037109375
6283.80349856,2953.7705078125,1094.5054931640625
6283.804760228,2949.90185546875,1093.77294921875
6283.837330949,2953.7705078125,1094.5054931640625
6283.870034432,2949.90185546875,1093.77294921875
6283.871004097,2953.7705078125,1094.5054931640625
6283.903562676,2949.90185546875,1093.77294921875
6283.904698661,2953.7705078125,1094.5054931640625
6283.93762912,2953.7705078125,1093.77294921875
6283.970015221,2953.7705078125,1093.040283203125
6283.970963149,2949.90185546875,1093.77294921875
6284.003913836,2949.90185546875,1093.77294921875
6284.011050741,2953.7705078125,1094.5054931640625
6284.043494811,2953.7705078125,1093.77294921875
6284.1097881,2957.6494140625,1093.77294921875
6284.111041718,2953.7705078125,1090.10986328125
6284.112246747,2949.90185546875,1092.3077392578125
6284.113411435,2949.90185546875,1093.040283203125
6284.14630049,2953.7705078125,1094.5054931640625
6284.147618911,2949.90185546875,1093.77294921875
6284.179762294,2949.90185546875,1094.5054931640625
6284.212265951,2949.90185546875,1094.5054931640625
6284.21477362,2949.90185546875,1094.5054931640625
6284.247398478,2949.90185546875,1094.5054931640625
6284.248567458,2953.7705078125,1094.5054931640625
6284.281049442,2953.7705078125,1094.5054931640625
6284.286024455,2949.90185546875,1093.77294921875
6284.338704799,2949.90185546875,1093.77294921875
6284.340120098,2949.90185546875,1094.5054931640625
6284.39751708,2949.90185546875,1094.5054931640625
6284.39876264,2949.90185546875,1094.5054931640625
6284.399751438,2949.90185546875,1094.5054931640625
6284.432461195,2953.7705078125,1095.238037109375
6284.433523045,2953.7705078125,1093.77294921875
6284.466065688,2953.7705078125,1094.5054931640625
6284.49866041,2949.90185546875,1093.77294921875
6284.500100588,2949.90185546875,1094.5054931640625
6284.53273356,2953.7705078125,1094.5054931640625
6284.53381398,2949.90185546875,1094.5054931640625
6284.566423699,2953.7705078125,1094.5054931640625
6284.568925742,2953.7705078125,1094.5054931640625
6284.601072379,2953.7705078125,1093.77294921875
6284.606077017,2957.6494140625,1093.77294921875
6284.63877812,2957.6494140625,1090.10986328125
6284.703638552,2953.7705078125,1088.6446533203125
6284.704839335,2957.6494140625,1091.5750732421875
6284.706010992,2957.6494140625,1089.3773193359375
6284.707218495,2957.6494140625,1087.912109375
6284.739821752,2957.6494140625,1087.912109375
6284.744692106,2957.6494140625,1087.912109375
6284.777485932,2957.6494140625,1087.179443359375
6284.809835125,2957.6494140625,1087.179443359375
6284.810895577,2957.6494140625,1087.179443359375
6284.843562683,2957.6494140625,1087.179443359375
6284.876029748,2953.7705078125,1087.179443359375
6284.878498448,2953.7705078125,1090.842529296875
6284.910958726,2953.7705078125,1091.5750732421875
6284.912336111,2957.6494140625,1093.040283203125
6284.944814586,2953.7705078125,1090.10986328125
6284.947633787,2957.6494140625,1092.3077392578125
6285.013659428,2957.6494140625,1089.3773193359375
6285.01471555,2957.6494140625,1088.6446533203125
6285.015874319,2957.6494140625,1087.912109375
6285.048490432,2949.90185546875,1087.179443359375
6285.049752611,2957.6494140625,1091.5750732421875
6285.082624002,2957.6494140625,1089.3773193359375
6285.088534607,2953.7705078125,1087.912109375
6285.121233666,2957.6494140625,1090.842529296875
6285.15357389,2957.6494140625,1088.6446533203125
6285.154708517,2957.6494140625,1088.6446533203125
6285.187700607,2953.7705078125,1087.179443359375
6285.189730902,2957.6494140625,1090.842529296875
6285.22233027,2957.6494140625,1089.3773193359375
6285.223414784,2957.6494140625,1087.912109375
6285.255971485,2957.6494140625,1087.179443359375
6285.297428736,2953.7705078125,1087.179443359375
6285.298457184,2957.6494140625,1090.842529296875
6285.331030634,2957.6494140625,1088.6446533203125
6285.332351115,2957.6494140625,1087.912109375
6285.364997115,2953.7705078125,1087.179443359375
6285.366273483,2957.6494140625,1091.5750732421875
6285.401045156,2957.6494140625,1088.6446533203125
6285.406131053,2957.6494140625,1088.6446533203125
6285.438559166,2957.6494140625,1087.912109375
6285.47128318,2957.6494140625,1087.179443359375
6285.472575161,2957.6494140625,1087.179443359375
6285.504837651,2957.6494140625,1087.179443359375
6285.505921251,2957.6494140625,1087.179443359375
6285.538764669,2957.6494140625,1087.179443359375
6285.546005208,2961.53857421875,1087.179443359375
6285.618727275,2957.6494140625,1089.3773193359375
6285.619990972,2953.7705078125,1087.912109375
6285.620933523,2957.6494140625,1091.5750732421875
6285.63346925,2957.6494140625,1089.3773193359375
6285.666250123,2953.7705078125,1087.912109375
6285.667516712,2957.6494140625,1090.842529296875
6285.699906677,2957.6494140625,1088.6446533203125
6285.702356027,2953.7705078125,1087.912109375
6285.734921669,2957.6494140625,1090.842529296875
6285.767666223,2957.6494140625,1088.6446533203125
6285.76888413,2957.6494140625,1088.6446533203125
6285.801265937,2953.7705078125,1087.912109375
6285.808486316,2953.7705078125,1090.842529296875
6285.840002325,2957.6494140625,1092.3077392578125
6285.84601592,2957.6494140625,1089.3773193359375
6285.878638686,2957.6494140625,1088.6446533203125
6285.911255161,2957.6494140625,1087.912109375
6285.912285519,2953.7705078125,1087.912109375
6285.944965488,2953.7705078125,1090.842529296875
6285.945961255,2957.6494140625,1092.3077392578125
6285.978779147,2957.6494140625,1089.3773193359375
6285.979685262,2957.6494140625,1088.6446533203125
6286.012372264,2957.6494140625,1087.912109375
6286.045137699,2957.6494140625,1087.912109375
6286.045989175,2957.6494140625,1087.179443359375
6286.078621806,2957.6494140625,1087.179443359375
6286.111251243,2957.6494140625,1087.179443359375
6286.112318649,2957.6494140625,1087.179443359375
6286.145215594,2957.6494140625,1087.179443359375
6286.151218749,2957.6494140625,1087.179443359375
6286.211362742,2953.7705078125,1087.179443359375
6286.212372571,2957.6494140625,1090.842529296875
6286.213575411,2957.6494140625,1089.3773193359375
6286.258606978,2953.7705078125,1087.912109375
6286.259732774,2953.7705078125,1090.842529296875
6286.292381156,2953.7705078125,1092.3077392578125
6286.29343104,2953.7705078125,1093.040283203125
6286.327433416,2957.6494140625,1093.040283203125
6286.328558223,2957.6494140625,1090.10986328125
6286.361151763,2953.7705078125,1088.6446533203125
6286.362375052,2953.7705078125,1091.5750732421875
6286.394910447,2953.7705078125,1092.3077392578125
6286.427393082,2953.7705078125,1093.040283203125
6286.428428467,2953.7705078125,1093.77294921875
6286.461157522,2953.7705078125,1093.77294921875
6286.462583659,2953.7705078125,1093.77294921875
6286.498624,2953.7705078125,1093.77294921875
6286.503655595,2953.7705078125,1093.77294921875
6286.536468181,2953.7705078125,1093.77294921875
6286.570061777,2953.7705078125,1093.77294921875
6286.570176232,2953.7705078125,1093.77294921875
6286.60278508,2953.7705078125,1093.040283203125
6286.611913897,2953.7705078125,1093.77294921875
6286.642396668,2953.7705078125,1093.77294921875
6286.645029032,2953.7705078125,1093.77294921875
6286.677435012,2953.7705078125,1093.77294921875
6286.713416999,2953.7705078125,1093.77294921875
6286.71351153,2953.7705078125,1093.77294921875
6286.744933317,2953.7705078125,1093.77294921875
6286.746553147,2957.6494140625,1093.77294921875
6286.797384425,2953.7705078125,1090.10986328125
6286.798636527,2957.6494140625,1092.3077392578125
6286.805318754,2957.6494140625,1089.3773193359375
6286.837446814,2957.6494140625,1087.912109375
6286.869903965,2957.6494140625,1087.912109375
6286.871105638,2957.6494140625,1087.912109375
6286.898649107,2953.7705078125,1087.179443359375
6286.932418304,2957.6494140625,1090.10986328125
6286.93357456,2957.6494140625,1088.6446533203125
6286.966176043,2953.7705078125,1087.912109375
6286.967433665,2957.6494140625,1090.842529296875
6286.999914962,2953.7705078125,1089.3773193359375
6287.005029711,2953.7705078125,1091.5750732421875
6287.038640601,2953.7705078125,1092.3077392578125
6287.09615258,2957.6494140625,1093.040283203125
6287.097365371,2953.7705078125,1090.10986328125
6287.09858693,2953.7705078125,1091.5750732421875
6287.12366387,2953.7705078125,1092.3077392578125
6287.12482203,2953.7705078125,1093.040283203125
6287.158650402,2953.7705078125,1093.040283203125
6287.163678672,2957.6494140625,1093.040283203125
6287.196381021,2957.6494140625,1090.10986328125
6287.228649772,2953.7705078125,1088.6446533203125
6287.230809504,2957.6494140625,1090.842529296875
6287.264355737,2953.7705078125,1088.6446533203125
6287.264452721,2957.6494140625,1091.5750732421875
6287.297412391,2953.7705078125,1089.3773193359375
6287.331133054,2949.90185546875,1091.5750732421875
6287.332291639,2953.7705078125,1093.040283203125
6287.394921536,2949.90185546875,1093.040283203125
6287.396096619,2949.90185546875,1094.5054931640625
6287.39731355,2953.7705078125,1094.5054931640625
6287.429909611,2949.90185546875,1093.77294921875
6287.431037955,2953.7705078125,1094.5054931640625
6287.463675519,2949.90185546875,1094.5054931640625
6287.464798371,2957.6494140625,1095.238037109375
6287.497359857,2953.7705078125,1090.842529296875
6287.538667522,2957.6494140625,1092.3077392578125
6287.539817152,2953.7705078125,1090.10986328125
6287.5726172,2953.7705078125,1091.5750732421875
6287.573610023,2953.7705078125,1093.040283203125
6287.606422927,2953.7705078125,1093.040283203125
6287.607756811,2953.7705078125,1093.040283203125
6287.639969711,2953.7705078125,1093.77294921875
6287.646340787,2949.90185546875,1093.77294921875
6287.698902189,2953.7705078125,1093.77294921875
6287.699895915,2949.90185546875,1093.77294921875
6287.732647809,2953.7705078125,1094.5054931640625
6287.733642321,2953.7705078125,1093.77294921875
6287.766255603,2953.7705078125,1093.040283203125
6287.767502639,2953.7705078125,1093.77294921875
6287.800201185,2957.6494140625,1093.77294921875
6287.801493041,2953.7705078125,1090.10986328125
6287.83366006,2953.7705078125,1092.3077392578125
6287.867351447,2953.7705078125,1093.040283203125
6287.869882805,2953.7705078125,1093.040283203125
6287.902355783,2953.7705078125,1093.040283203125
6287.903669092,2953.7705078125,1093.040283203125
6287.936214052,2953.7705078125,1093.040283203125
6288.002416769,2953.7705078125,1093.77294921875
6288.003583712,2953.7705078125,1093.77294921875
6288.004830978,2949.90185546875,1093.77294921875
6288.009906456,2949.90185546875,1093.77294921875
6288.042411208,2953.7705078125,1094.5054931640625
6288.047347157,2953.7705078125,1094.5054931640625
6288.07986569,2953.7705078125,1093.77294921875
6288.081052075,2953.7705078125,1093.77294921875
6288.113661869,2953.7705078125,1093.77294921875
6288.146228136,2953.7705078125,1093.77294921875
6288.147444815,2953.7705078125,1093.77294921875
6288.178622727,2953.7705078125,1093.77294921875
6288.211091235,2953.7705078125,1093.77294921875
6288.212361712,2953.7705078125,1093.040283203125
6288.244872135,2949.90185546875,1093.040283203125
6288.246023274,2953.7705078125,1093.77294921875
6288.29615475,2953.7705078125,1093.77294921875
6288.297317365,2953.7705078125,1093.040283203125
6288.330143965,2953.7705078125,1093.77294921875
6288.33151863,2953.7705078125,1093.040283203125
