timestamp,GSR,PPG
6171.190682681,3041.52587890625,1043.9560546875
6171.191761784,3045.638916015625,1045.4212646484375
6171.224434077,3045.638916015625,1042.4908447265625
6171.256999819,3041.52587890625,1041.75830078125
6171.258040782,3045.638916015625,1043.9560546875
6171.294392491,3045.638916015625,1042.4908447265625
6171.29600182,3045.638916015625,1041.75830078125
6171.328140526,3041.52587890625,1041.025634765625
6171.329390959,3041.52587890625,1043.9560546875
6171.361921748,3041.52587890625,1045.4212646484375
6171.39432928,3045.638916015625,1046.15380859375
6171.395570143,3045.638916015625,1043.223388671875
6171.428153932,3041.52587890625,1041.75830078125
6171.429467954,3045.638916015625,1043.9560546875
6171.46318271,3041.52587890625,1041.75830078125
6171.464356866,3045.638916015625,1044.6885986328125
6171.496872017,3045.638916015625,1042.4908447265625
6171.529569373,3041.52587890625,1041.75830078125
6171.530633994,3041.52587890625,1043.9560546875
6171.602163753,3041.52587890625,1045.4212646484375
6171.603158834,3041.52587890625,1046.15380859375
6171.604686885,3041.52587890625,1046.15380859375
6171.636940715,3041.52587890625,1046.15380859375
6171.638071765,3041.52587890625,1046.15380859375
6171.695624725,3037.424072265625,1046.15380859375
6171.696773445,3041.52587890625,1043.9560546875
6171.698405321,3041.52587890625,1044.6885986328125
6171.730816188,3041.52587890625,1046.15380859375
6171.732277877,3045.638916015625,1046.15380859375
6171.764394408,3041.52587890625,1043.223388671875
6171.797120899,3041.52587890625,1045.4212646484375
6171.79816263,3041.52587890625,1046.15380859375
6171.832047162,3041.52587890625,1046.15380859375
6171.83315196,3041.52587890625,1046.15380859375
6171.89436764,3041.52587890625,1046.15380859375
6171.895534209,3037.424072265625,1046.15380859375
6171.896866896,3041.52587890625,1043.223388671875
6171.929633755,3037.424072265625,1044.6885986328125
6171.930628833,3037.424072265625,1043.223388671875
6171.963395149,3041.52587890625,1042.4908447265625
6171.96480983,3041.52587890625,1044.6885986328125
6171.997050541,3041.52587890625,1045.4212646484375
6172.029386538,3037.424072265625,1045.4212646484375
6172.030552484,3041.52587890625,1043.9560546875
6172.063331609,3041.52587890625,1045.4212646484375
6172.0956322,3041.52587890625,1045.4212646484375
6172.09688757,3041.52587890625,1046.15380859375
6172.129495928,3041.52587890625,1046.15380859375
6172.130894902,3041.52587890625,1046.886474609375
6172.200782061,3041.52587890625,1046.15380859375
6172.202309231,3041.52587890625,1046.15380859375
6172.203407029,3041.52587890625,1046.15380859375
6172.235674494,3041.52587890625,1046.886474609375
6172.236838806,3041.52587890625,1046.886474609375
6172.269619253,3037.424072265625,1046.886474609375
6172.270587668,3041.52587890625,1043.9560546875
6172.303489978,3041.52587890625,1045.4212646484375
6172.304346642,3041.52587890625,1045.4212646484375
6172.335818932,3041.52587890625,1046.15380859375
6172.368270847,3041.52587890625,1046.15380859375
6172.369337915,3041.52587890625,1046.15380859375
6172.40196709,3041.52587890625,1046.15380859375
6172.43461281,3037.424072265625,1046.15380859375
6172.435614646,3037.424072265625,1043.9560546875
6172.498413018,3037.424072265625,1042.4908447265625
6172.499712508,3037.424072265625,1042.4908447265625
6172.500991844,3037.424072265625,1041.75830078125
6172.533263831,3037.424072265625,1041.75830078125
6172.534576096,3037.424072265625,1041.75830078125
6172.567112334,3037.424072265625,1041.75830078125
6172.575122894,3033.333251953125,1041.75830078125
6172.606905889,3033.333251953125,1045.4212646484375
6172.608071691,3033.333251953125,1046.886474609375
6172.640702371,3037.424072265625,1046.886474609375
6172.673308408,3033.333251953125,1043.9560546875
6172.674324908,3029.25341796875,1046.15380859375
6172.706934836,3033.333251953125,1047.6190185546875
6172.70823231,3029.25341796875,1047.6190185546875
6172.740607239,3029.25341796875,1048.3516845703125
6172.745820417,3033.333251953125,1048.3516845703125
6172.806913343,3029.25341796875,1047.6190185546875
6172.808172885,3029.25341796875,1048.3516845703125
6172.80932581,3029.25341796875,1048.3516845703125
6172.842247113,3025.1845703125,1049.084228515625
6172.87440671,3029.25341796875,1052.0146484375
6172.875961699,3029.25341796875,1050.5494384765625
6172.90940132,3029.25341796875,1049.81689453125
6172.910564433,3025.1845703125,1049.084228515625
6172.943217401,3029.25341796875,1052.0146484375
6172.949635705,3025.1845703125,1050.5494384765625
6172.976917808,3025.1845703125,1052.7471923828125
6173.009401438,3025.1845703125,1053.4798583984375
6173.010574537,3029.25341796875,1054.21240234375
6173.043319944,3029.25341796875,1051.2821044921875
6173.095722522,3029.25341796875,1049.81689453125
6173.096890289,3033.333251953125,1049.81689453125
6173.098095078,3033.333251953125,1048.3516845703125
6173.130987438,3037.424072265625,1047.6190185546875
6173.131978022,3037.424072265625,1044.6885986328125
6173.164619065,3033.333251953125,1043.223388671875
6173.170721113,3037.424072265625,1045.4212646484375
6173.203353385,3037.424072265625,1043.9560546875
6173.235877435,3041.52587890625,1042.4908447265625
6173.236960783,3041.52587890625,1044.6885986328125
6173.269638555,3037.424072265625,1045.4212646484375
6173.270642019,3041.52587890625,1043.223388671875
6173.303334731,3037.424072265625,1044.6885986328125
6173.310754525,3041.52587890625,1043.223388671875
6173.3434969,3037.424072265625,1045.4212646484375
6173.404651676,3037.424072265625,1043.223388671875
6173.405706599,3037.424072265625,1042.4908447265625
6173.407347837,3041.52587890625,1041.75830078125
6173.408252055,3041.52587890625,1044.6885986328125
6173.44074189,3041.52587890625,1045.4212646484375
6173.473285959,3041.52587890625,1046.15380859375
6173.47434248,3037.424072265625,1046.15380859375
6173.507343338,3037.424072265625,1043.9560546875
6173.508212002,3037.424072265625,1042.4908447265625
6173.540724588,3037.424072265625,1042.4908447265625
6173.547026799,3041.52587890625,1041.75830078125
6173.579747039,3041.52587890625,1044.6885986328125
6173.615833441,3041.52587890625,1045.4212646484375
6173.616979225,3041.52587890625,1046.15380859375
6173.649502784,3037.424072265625,1046.15380859375
6173.650643889,3041.52587890625,1043.9560546875
6173.699774939,3041.52587890625,1044.6885986328125
6173.700732606,3041.52587890625,1046.15380859375
6173.708494026,3037.424072265625,1046.15380859375
6173.740715014,3037.424072265625,1043.9560546875
6173.773315548,3037.424072265625,1042.4908447265625
6173.774400946,3037.424072265625,1042.4908447265625
6173.807012942,3037.424072265625,1041.75830078125
6173.814686126,3037.424072265625,1041.75830078125
6173.847046506,3033.333251953125,1041.75830078125
6173.854462053,3037.424072265625,1044.6885986328125
6173.886972928,3033.333251953125,1043.223388671875
6173.888435719,3037.424072265625,1045.4212646484375
6173.921984477,3041.52587890625,1043.223388671875
6173.929637913,3041.52587890625,1044.6885986328125
6173.997177721,3041.52587890625,1046.15380859375
6173.99858935,3041.52587890625,1046.15380859375
6173.999847652,3045.638916015625,1046.15380859375
6174.032084511,3037.424072265625,1043.223388671875
6174.033273003,3045.638916015625,1042.4908447265625
6174.044525766,3049.762939453125,1041.75830078125
6174.076989402,3049.762939453125,1040.2930908203125
6174.109595497,3045.638916015625,1040.2930908203125
6174.111086538,3049.762939453125,1040.2930908203125
6174.143533393,3053.898193359375,1040.2930908203125
6174.150812387,3049.762939453125,1036.6300048828125
6174.183440436,3049.762939453125,1038.09521484375
6174.184481132,3053.898193359375,1038.827880859375
6174.217242139,3049.762939453125,1035.8974609375
6174.255802491,3045.638916015625,1037.3626708984375
6174.256905464,3049.762939453125,1039.5604248046875
6174.293577006,3045.638916015625,1039.5604248046875
6174.294517204,3049.762939453125,1039.5604248046875
6174.32727166,3045.638916015625,1039.5604248046875
6174.333253412,3049.762939453125,1040.2930908203125
6174.36573847,3049.762939453125,1039.5604248046875
6174.366900892,3049.762939453125,1039.5604248046875
6174.399563583,3049.762939453125,1039.5604248046875
6174.432191206,3045.638916015625,1039.5604248046875
6174.433181752,3049.762939453125,1040.2930908203125
6174.46581571,3049.762939453125,1040.2930908203125
6174.470911094,3053.898193359375,1039.5604248046875
6174.503291998,3053.898193359375,1035.8974609375
6174.504420725,3053.898193359375,1034.4322509765625
6174.537068141,3053.898193359375,1033.6995849609375
6174.595991874,3049.762939453125,1033.6995849609375
6174.597234045,3053.898193359375,1036.6300048828125
6174.598228992,3053.898193359375,1034.4322509765625
6174.630931552,3058.044921875,1034.4322509765625
6174.632066156,3058.044921875,1035.8974609375
6174.664774493,3062.20263671875,1037.3626708984375
6174.665765548,3066.37158203125,1034.4322509765625
6174.698372714,3062.20263671875,1032.234375
6174.730973373,3062.20263671875,1032.234375
6174.731996651,3062.20263671875,1032.234375
6174.764770183,3058.044921875,1032.234375
6174.771986118,3058.044921875,1035.164794921875
6174.804550998,3053.898193359375,1036.6300048828125
6174.837037795,3058.044921875,1035.164794921875
6174.838199589,3053.898193359375,1036.6300048828125
6174.909703706,3053.898193359375,1035.164794921875
6174.910784951,3053.898193359375,1034.4322509765625
6174.911940629,3053.898193359375,1033.6995849609375
6174.92350399,3053.898193359375,1033.6995849609375
6174.93099804,3053.898193359375,1033.6995849609375
6174.963501037,3053.898193359375,1033.6995849609375
6174.996007004,3053.898193359375,1033.6995849609375
6174.997047661,3053.898193359375,1033.6995849609375
6175.029757694,3053.898193359375,1032.967041015625
6175.030976675,3049.762939453125,1033.6995849609375
6175.063508373,3049.762939453125,1036.6300048828125
6175.068237453,3045.638916015625,1038.09521484375
6175.100843477,3049.762939453125,1038.827880859375
6175.133415437,3049.762939453125,1039.5604248046875
6175.134458226,3041.52587890625,1039.5604248046875
6175.192075083,3037.424072265625,1043.223388671875
6175.193193064,3045.638916015625,1042.4908447265625
6175.194455957,3045.638916015625,1041.025634765625
6175.227478942,3045.638916015625,1041.025634765625
6175.228210162,3041.52587890625,1041.025634765625
6175.261010161,3045.638916015625,1043.9560546875
6175.293504494,3041.52587890625,1042.4908447265625
6175.294776937,3041.52587890625,1044.6885986328125
6175.327256077,3041.52587890625,1045.4212646484375
6175.328437072,3041.52587890625,1046.15380859375
6175.361006132,3037.424072265625,1046.886474609375
6175.393485888,3033.333251953125,1043.9560546875
6175.394548002,3037.424072265625,1046.15380859375
6175.427038526,3045.638916015625,1043.9560546875
6175.428164897,3045.638916015625,1041.75830078125
6175.493488879,3049.762939453125,1041.025634765625
6175.494531589,3053.898193359375,1040.2930908203125
6175.495699046,3049.762939453125,1036.6300048828125
6175.53573863,3049.762939453125,1038.09521484375
6175.536985391,3049.762939453125,1038.827880859375
6175.569504096,3045.638916015625,1038.827880859375
6175.570727551,3049.762939453125,1040.2930908203125
6175.603568288,3049.762939453125,1040.2930908203125
6175.635703372,3045.638916015625,1040.2930908203125
6175.636990587,3045.638916015625,1040.2930908203125
6175.669502758,3041.52587890625,1040.2930908203125
6175.670718754,3049.762939453125,1043.9560546875
6175.704744311,3045.638916015625,1041.75830078125
6175.705740247,3045.638916015625,1041.025634765625
6175.738498764,3045.638916015625,1041.025634765625
6175.793487637,3045.638916015625,1040.2930908203125
6175.794559124,3045.638916015625,1041.025634765625
6175.796068878,3045.638916015625,1041.025634765625
6175.804587392,3041.52587890625,1040.2930908203125
6175.837031355,3045.638916015625,1043.9560546875
6175.869556542,3041.52587890625,1041.75830078125
6175.870814747,3045.638916015625,1044.6885986328125
6175.906031958,3049.762939453125,1042.4908447265625
6175.908403634,3049.762939453125,1041.025634765625
6175.940805163,3053.898193359375,1040.2930908203125
6175.947006275,3053.898193359375,1037.3626708984375
6175.979528424,3049.762939453125,1035.164794921875
6175.987242567,3049.762939453125,1037.3626708984375
6176.019552583,3049.762939453125,1038.827880859375
6176.052036251,3049.762939453125,1038.827880859375
6176.053235741,3049.762939453125,1038.827880859375
6176.099500368,3045.638916015625,1038.827880859375
6176.100754056,3045.638916015625,1039.5604248046875
6176.101927759,3045.638916015625,1040.2930908203125
6176.134485273,3045.638916015625,1040.2930908203125
6176.17617097,3037.424072265625,1040.2930908203125
6176.177122535,3037.424072265625,1041.025634765625
6176.209690935,3033.333251953125,1041.025634765625
6176.210749102,3033.333251953125,1044.6885986328125
6176.243366744,3037.424072265625,1046.15380859375
6176.275984239,3033.333251953125,1043.9560546875
6176.277026464,3033.333251953125,1046.15380859375
6176.309882044,3029.25341796875,1046.15380859375
6176.310828923,3029.25341796875,1048.3516845703125
6176.343299249,3029.25341796875,1048.3516845703125
6176.349576385,3025.1845703125,1049.084228515625
6176.399605422,3025.1845703125,1052.0146484375
6176.400707337,3029.25341796875,1053.4798583984375
6176.43376895,3029.25341796875,1051.2821044921875
6176.434525967,3025.1845703125,1050.5494384765625
6176.467305773,3025.1845703125,1052.7471923828125
6176.46821605,3025.1845703125,1054.21240234375
6176.501038601,3025.1845703125,1054.945068359375
6176.508398872,3025.1845703125,1054.945068359375
6176.54088228,3021.126708984375,1055.6776123046875
6176.573401719,3021.126708984375,1052.7471923828125
6176.574465943,3021.126708984375,1051.2821044921875
6176.607286797,3017.07958984375,1050.5494384765625
6176.60859047,3017.07958984375,1054.21240234375
6176.640998653,3017.07958984375,1054.945068359375
6176.648406622,3017.07958984375,1055.6776123046875
6176.702075397,3017.07958984375,1056.4102783203125
6176.703697254,3013.04345703125,1056.4102783203125
6176.735805132,3013.04345703125,1057.142822265625
6176.737008843,3013.04345703125,1057.142822265625
6176.769728571,3009.01806640625,1057.87548828125
6176.770738408,3013.04345703125,1060.805908203125
6176.815860351,3009.01806640625,1059.3406982421875
6176.816894076,3009.01806640625,1061.5384521484375
6176.849603774,3009.01806640625,1063.003662109375
6176.850742351,3009.01806640625,1063.7362060546875
6176.88345656,3013.04345703125,1063.7362060546875
6176.888616401,3013.04345703125,1060.805908203125
6176.92088792,3021.126708984375,1059.3406982421875
6176.922199774,3025.1845703125,1054.21240234375
6176.95473654,3029.25341796875,1054.945068359375
6176.99450562,3033.333251953125,1052.0146484375
6176.995645341,3033.333251953125,1049.81689453125
6177.028461291,3037.424072265625,1048.3516845703125
6177.029564912,3041.52587890625,1045.4212646484375
6177.06208533,3041.52587890625,1046.15380859375
6177.063321816,3045.638916015625,1046.15380859375
6177.095930328,3049.762939453125,1043.223388671875
6177.128535893,3053.898193359375,1041.025634765625
6177.129408915,3058.044921875,1037.3626708984375
6177.162241155,3062.20263671875,1038.09521484375
6177.194641233,3066.37158203125,1034.4322509765625
6177.195685607,3066.37158203125,1032.967041015625
6177.228520605,3062.20263671875,1032.234375
6177.229448724,3066.37158203125,1032.234375
6177.299760202,3066.37158203125,1031.5018310546875
6177.301168954,3066.37158203125,1031.5018310546875
6177.302003111,3066.37158203125,1031.5018310546875
6177.309630512,3066.37158203125,1031.5018310546875
6177.342007137,3066.37158203125,1031.5018310546875
6177.346980301,3062.20263671875,1031.5018310546875
6177.379739194,3066.37158203125,1032.234375
6177.380850554,3066.37158203125,1031.5018310546875
6177.41349268,3066.37158203125,1031.5018310546875
6177.456071795,3066.37158203125,1031.5018310546875
6177.457018616,3066.37158203125,1031.5018310546875
6177.489565536,3066.37158203125,1031.5018310546875
6177.490671405,3066.37158203125,1031.5018310546875
6177.523484731,3066.37158203125,1031.5018310546875
6177.555932344,3066.37158203125,1031.5018310546875
6177.557395276,3066.37158203125,1031.5018310546875
6177.593396926,3062.20263671875,1031.5018310546875
6177.594426069,3066.37158203125,1032.234375
6177.627167473,3066.37158203125,1031.5018310546875
6177.628299414,3066.37158203125,1031.5018310546875
6177.660906397,3062.20263671875,1032.234375
6177.693403177,3066.37158203125,1031.5018310546875
6177.694476647,3066.37158203125,1031.5018310546875
6177.727137612,3062.20263671875,1031.5018310546875
6177.728595798,3066.37158203125,1031.5018310546875
6177.760889258,3062.20263671875,1031.5018310546875
6177.765794472,3062.20263671875,1032.234375
6177.798650584,3062.20263671875,1032.234375
6177.82832913,3062.20263671875,1032.234375
6177.829788305,3066.37158203125,1032.234375
6177.862003589,3066.37158203125,1031.5018310546875
6177.863339376,3066.37158203125,1032.234375
6177.895911191,3066.37158203125,1031.5018310546875
6177.928408721,3058.044921875,1030.769287109375
6177.929399343,3062.20263671875,1035.164794921875
6177.962303736,3066.37158203125,1033.6995849609375
6177.966973853,3062.20263671875,1032.234375
6177.999771474,3066.37158203125,1032.234375
6178.032049582,3066.37158203125,1032.234375
6178.033394481,3066.37158203125,1031.5018310546875
6178.062532314,3062.20263671875,1031.5018310546875
6178.063717155,3066.37158203125,1032.234375
6178.095769053,3062.20263671875,1032.234375
6178.128403389,3058.044921875,1031.5018310546875
6178.129400016,3066.37158203125,1035.8974609375
6178.195895632,3066.37158203125,1032.967041015625
6178.197084806,3066.37158203125,1032.234375
6178.198303119,3066.37158203125,1032.234375
6178.231055995,3058.044921875,1031.5018310546875
6178.23201471,3066.37158203125,1035.164794921875
6178.264850229,3062.20263671875,1032.967041015625
6178.266025367,3062.20263671875,1032.967041015625
6178.298688795,3066.37158203125,1032.234375
6178.330889143,3062.20263671875,1031.5018310546875
6178.331923906,3062.20263671875,1032.234375
6178.364884735,3062.20263671875,1031.5018310546875
6178.366226345,3062.20263671875,1032.234375
6178.398614224,3062.20263671875,1032.234375
6178.431005974,3062.20263671875,1032.234375
6178.431950174,3066.37158203125,1032.234375
6178.504730367,3058.044921875,1031.5018310546875
6178.506128281,3062.20263671875,1035.164794921875
6178.507088086,3066.37158203125,1033.6995849609375
6178.508268273,3066.37158203125,1032.234375
6178.540932709,3066.37158203125,1032.234375
6178.542048443,3062.20263671875,1032.234375
6178.574687515,3062.20263671875,1032.234375
6178.607333609,3062.20263671875,1032.234375
6178.608362582,3062.20263671875,1032.234375
6178.640959985,3062.20263671875,1032.234375
6178.648358034,3062.20263671875,1032.234375
6178.681152796,3062.20263671875,1032.234375
6178.68247377,3062.20263671875,1032.234375
6178.735892487,3062.20263671875,1032.234375
6178.737039818,3062.20263671875,1032.234375
6178.795843204,3062.20263671875,1032.234375
6178.797061237,3062.20263671875,1032.234375
6178.798273383,3062.20263671875,1032.234375
6178.831241715,3062.20263671875,1032.234375
6178.832059759,3062.20263671875,1032.234375
6178.864872147,3058.044921875,1032.967041015625
6178.865907008,3062.20263671875,1035.164794921875
6178.898620929,3062.20263671875,1033.6995849609375
6178.930986786,3062.20263671875,1033.6995849609375
6178.932117575,3062.20263671875,1032.967041015625
6178.964903679,3058.044921875,1032.234375
6178.965924941,3053.898193359375,1035.164794921875
6178.99848318,3053.898193359375,1035.164794921875
6179.003347858,3049.762939453125,1034.4322509765625
6179.036138607,3053.898193359375,1036.6300048828125
6179.107395303,3049.762939453125,1035.164794921875
6179.108421676,3049.762939453125,1037.3626708984375
6179.110041405,3049.762939453125,1038.827880859375
6179.110971939,3045.638916015625,1039.5604248046875
6179.143480223,3045.638916015625,1040.2930908203125
6179.144568782,3049.762939453125,1040.2930908203125
6179.177209769,3045.638916015625,1040.2930908203125
6179.212719761,3045.638916015625,1040.2930908203125
6179.212849587,3041.52587890625,1040.2930908203125
6179.243431056,3045.638916015625,1043.9560546875
6179.244581493,3041.52587890625,1042.4908447265625
6179.277154258,3041.52587890625,1044.6885986328125
6179.30986564,3045.638916015625,1044.6885986328125
6179.310922258,3049.762939453125,1042.4908447265625
6179.34339422,3049.762939453125,1041.025634765625
6179.344576018,3049.762939453125,1040.2930908203125
6179.412317671,3045.638916015625,1040.2930908203125
6179.413304735,3045.638916015625,1040.2930908203125
6179.414531455,3041.52587890625,1040.2930908203125
6179.447170871,3037.424072265625,1043.223388671875
6179.448385657,3041.52587890625,1042.4908447265625
6179.481016062,3041.52587890625,1044.6885986328125
6179.482163351,3037.424072265625,1046.15380859375
6179.514651993,3041.52587890625,1043.223388671875
6179.547452102,3037.424072265625,1045.4212646484375
6179.548404625,3037.424072265625,1043.223388671875
6179.58088007,3037.424072265625,1042.4908447265625
6179.613541982,3041.52587890625,1042.4908447265625
6179.614591957,3041.52587890625,1044.6885986328125
6179.647449229,3041.52587890625,1045.4212646484375
6179.648348745,3037.424072265625,1046.886474609375
6179.69865667,3037.424072265625,1043.9560546875
6179.699616926,3037.424072265625,1043.223388671875
6179.707228595,3037.424072265625,1042.4908447265625
6179.739600527,3041.52587890625,1041.75830078125
6179.747127468,3037.424072265625,1044.6885986328125
6179.779904464,3037.424072265625,1043.223388671875
6179.781145077,3041.52587890625,1042.4908447265625
6179.813490939,3037.424072265625,1044.6885986328125
6179.845978102,3033.333251953125,1043.223388671875
6179.847107083,3037.424072265625,1046.15380859375
6179.879898081,3041.52587890625,1043.9560546875
6179.912356951,3041.52587890625,1045.4212646484375
6179.913379357,3041.52587890625,1046.15380859375
6179.945963142,3041.52587890625,1046.886474609375
6179.952300215,3041.52587890625,1046.886474609375
6180.024783681,3041.52587890625,1046.886474609375
6180.025814921,3045.638916015625,1046.886474609375
6180.027493233,3045.638916015625,1043.223388671875
6180.034875543,3045.638916015625,1041.75830078125
6180.067180715,3041.52587890625,1041.025634765625
6180.068337789,3045.638916015625,1043.9560546875
6180.101014855,3041.52587890625,1042.4908447265625
6180.102075805,3045.638916015625,1044.6885986328125
6180.13491414,3041.52587890625,1042.4908447265625
6180.167253642,3037.424072265625,1044.6885986328125
6180.168342489,3041.52587890625,1043.223388671875
6180.201069153,3041.52587890625,1045.4212646484375
6180.205995594,3041.52587890625,1046.15380859375
6180.238416069,3041.52587890625,1046.15380859375
6180.293335145,3041.52587890625,1046.886474609375
6180.294666675,3041.52587890625,1046.15380859375
6180.295869403,3041.52587890625,1046.15380859375
6180.328430568,3037.424072265625,1046.886474609375
6180.329639036,3037.424072265625,1043.9560546875
6180.362146635,3041.52587890625,1042.4908447265625
6180.363284917,3041.52587890625,1045.4212646484375
6180.396147999,3045.638916015625,1046.15380859375
6180.428658965,3041.52587890625,1043.223388671875
6180.430040117,3041.52587890625,1045.4212646484375
6180.462265281,3037.424072265625,1045.4212646484375
6180.46335513,3037.424072265625,1043.9560546875
6180.495876954,3045.638916015625,1042.4908447265625
6180.528441931,3041.52587890625,1041.75830078125
6180.52987262,3041.52587890625,1044.6885986328125
6180.601138986,3037.424072265625,1045.4212646484375
6180.602446719,3037.424072265625,1043.223388671875
6180.603372969,3037.424072265625,1043.223388671875
6180.60459381,3041.52587890625,1042.4908447265625
6180.656006007,3041.52587890625,1044.6885986328125
6180.657288635,3041.52587890625,1045.4212646484375
6180.689895488,3041.52587890625,1046.15380859375
6180.690930177,3041.52587890625,1046.15380859375
6180.723483818,3037.424072265625,1046.15380859375
6180.724590633,3041.52587890625,1043.9560546875
6180.757146528,3037.424072265625,1045.4212646484375
6180.762327381,3041.52587890625,1043.223388671875
6180.794613015,3041.52587890625,1044.6885986328125
6180.827309379,3037.424072265625,1046.15380859375
6180.828299858,3041.52587890625,1043.9560546875
6180.896128348,3041.52587890625,1045.4212646484375
6180.897144704,3041.52587890625,1046.15380859375
6180.89830548,3041.52587890625,1046.886474609375
6180.899555589,3041.52587890625,1046.886474609375
6180.932181736,3037.424072265625,1046.886474609375
6180.964767327,3037.424072265625,1043.9560546875
6180.965828777,3041.52587890625,1043.223388671875
6180.998579343,3033.333251953125,1045.4212646484375
6181.031112712,3037.424072265625,1046.886474609375
6181.032127045,3041.52587890625,1043.9560546875
6181.064906145,3041.52587890625,1045.4212646484375
6181.066208751,3037.424072265625,1046.15380859375
6181.099692435,3041.52587890625,1043.9560546875
6181.100867926,3041.52587890625,1045.4212646484375
6181.133598469,3041.52587890625,1046.15380859375
6181.202256521,3041.52587890625,1046.15380859375
6181.203331228,3041.52587890625,1046.886474609375
6181.204514507,3045.638916015625,1046.15380859375
6181.205783385,3045.638916015625,1043.223388671875
6181.238394205,3041.52587890625,1042.4908447265625
6181.239552651,3041.52587890625,1044.6885986328125
6181.296278005,3041.52587890625,1045.4212646484375
6181.297088534,3045.638916015625,1046.15380859375
6181.329665382,3045.638916015625,1043.223388671875
6181.331323311,3045.638916015625,1041.75830078125
6181.363620904,3045.638916015625,1041.025634765625
6181.365058274,3045.638916015625,1041.025634765625
6181.397366642,3045.638916015625,1041.025634765625
6181.429836702,3045.638916015625,1040.2930908203125
6181.431219308,3045.638916015625,1041.025634765625
6181.495951641,3045.638916015625,1040.2930908203125
6181.497086524,3045.638916015625,1040.2930908203125
6181.498268247,3045.638916015625,1040.2930908203125
6181.53092962,3041.52587890625,1040.2930908203125
6181.532160007,3049.762939453125,1043.223388671875
6181.564665636,3045.638916015625,1041.025634765625
6181.565813199,3045.638916015625,1040.2930908203125
6181.598643395,3045.638916015625,1041.025634765625
6181.604606259,3045.638916015625,1040.2930908203125
6181.637109806,3045.638916015625,1040.2930908203125
6181.669901015,3045.638916015625,1040.2930908203125
6181.670927878,3049.762939453125,1040.2930908203125
6181.703401471,3049.762939453125,1040.2930908203125
6181.70475987,3049.762939453125,1039.5604248046875
6181.737152374,3049.762939453125,1039.5604248046875
6181.742120453,3049.762939453125,1039.5604248046875
6181.799688784,3053.898193359375,1039.5604248046875
6181.800824318,3049.762939453125,1036.6300048828125
6181.802074617,3049.762939453125,1038.09521484375
6181.834683402,3045.638916015625,1038.827880859375
6181.867115888,3049.762939453125,1040.2930908203125
6181.868396508,3045.638916015625,1039.5604248046875
6181.900916706,3045.638916015625,1040.2930908203125
6181.90203202,3045.638916015625,1040.2930908203125
6181.935867606,3045.638916015625,1040.2930908203125
6181.968476925,3045.638916015625,1041.025634765625
6181.969570548,3045.638916015625,1041.025634765625
6182.002137853,3045.638916015625,1041.025634765625
6182.008395137,3041.52587890625,1041.025634765625
6182.041112594,3045.638916015625,1043.9560546875
6182.042357813,3045.638916015625,1042.4908447265625
6182.098623982,3045.638916015625,1041.75830078125
6182.099618803,3045.638916015625,1041.025634765625
6182.127200731,3045.638916015625,1041.025634765625
6182.128364992,3045.638916015625,1041.025634765625
6182.161057177,3045.638916015625,1040.2930908203125
6182.165996931,3045.638916015625,1041.025634765625
6182.198390053,3045.638916015625,1040.2930908203125
6182.200113351,3045.638916015625,1041.025634765625
6182.232148709,3045.638916015625,1040.2930908203125
6182.26471635,3045.638916015625,1040.2930908203125
6182.265945636,3045.638916015625,1041.025634765625
6182.298445319,3045.638916015625,1040.2930908203125
6182.331088133,3045.638916015625,1041.025634765625
6182.332188058,3045.638916015625,1040.2930908203125
6182.399679279,3037.424072265625,1041.025634765625
6182.40104433,3045.638916015625,1041.025634765625
6182.402015797,3045.638916015625,1041.025634765625
6182.403371658,3041.52587890625,1040.2930908203125
6182.435895574,3045.638916015625,1043.9560546875
6182.468640123,3045.638916015625,1042.4908447265625
6182.469656076,3045.638916015625,1041.025634765625
6182.502164621,3041.52587890625,1041.025634765625
6182.503340084,3045.638916015625,1043.9560546875
6182.535909492,3049.762939453125,1042.4908447265625
6182.576127136,3049.762939453125,1041.025634765625
6182.577079911,3053.898193359375,1040.2930908203125
6182.609718364,3053.898193359375,1036.6300048828125
6182.610875363,3058.044921875,1035.8974609375
6182.643643888,3053.898193359375,1036.6300048828125
6182.644649175,3058.044921875,1035.8974609375
6182.69468482,3058.044921875,1036.6300048828125
6182.695836416,3062.20263671875,1038.09521484375
6182.703411757,3058.044921875,1034.4322509765625
6182.73587704,3058.044921875,1036.6300048828125
6182.743661752,3058.044921875,1037.3626708984375
6182.775928338,3058.044921875,1037.3626708984375
6182.808564906,3058.044921875,1038.09521484375
6182.809547574,3058.044921875,1038.827880859375
6182.84237379,3053.898193359375,1038.09521484375
6182.843690849,3053.898193359375,1035.8974609375
6182.876242278,3062.20263671875,1035.164794921875
6182.908665347,3066.37158203125,1033.6995849609375
6182.909971515,3074.744140625,1032.234375
6182.9425433,3078.947265625,1031.5018310546875
6182.947354979,3078.947265625,1027.8388671875
6182.99363819,3083.162109375,1025.6409912109375
6182.994646497,3087.388671875,1024.17578125
6183.027336656,3078.947265625,1020.5128173828125
6183.028343685,3078.947265625,1021.97802734375
6183.061056213,3083.162109375,1022.7106323242188
6183.066027065,3078.947265625,1022.7106323242188
6183.098780863,3078.947265625,1023.4432373046875
6183.131019092,3078.947265625,1023.4432373046875
6183.13211959,3083.162109375,1023.4432373046875
6183.164932327,3083.162109375,1022.7106323242188
6183.16595602,3087.388671875,1022.7106323242188
6183.216019661,3087.388671875,1019.7802124023438
6183.21709741,3091.626708984375,1018.3150024414062
6183.225019278,3087.388671875,1020.5128173828125
6183.257274412,3091.626708984375,1018.3150024414062
6183.296152512,3091.626708984375,1020.5128173828125
6183.297376748,3091.626708984375,1021.2454223632812
6183.298527743,3095.876220703125,1021.2454223632812
6183.331198124,3100.1376953125,1018.3150024414062
6183.363598764,3100.1376953125,1016.8497924804688
6183.364748209,3095.876220703125,1016.1171875
6183.397329561,3104.41064453125,1015.3846435546875
6183.429770631,3104.41064453125,1012.4542236328125
6183.431024302,3108.695556640625,1010.989013671875
6183.46350001,3104.41064453125,1169.96337890625
6183.464695839,3104.41064453125,1084.981689453125
6183.497413262,3104.41064453125,1044.6885986328125
6183.4985197,3104.41064453125,1026.3736572265625
6183.531056389,3104.41064453125,1016.8497924804688
6183.603800018,3104.41064453125,1013.1868286132812
6183.6050928,3104.41064453125,1010.989013671875
6183.606035003,3100.1376953125,1010.2564086914062
6183.611319572,3104.41064453125,1013.1868286132812
6183.643544381,3100.1376953125,1010.2564086914062
6183.644646844,3104.41064453125,1012.4542236328125
6183.677540351,3100.1376953125,1010.2564086914062
6183.682283138,3095.876220703125,1012.4542236328125
6183.71478774,3091.626708984375,1014.6520385742188
6183.74731777,3087.388671875,1018.3150024414062
6183.748415321,3083.162109375,1017.5823974609375
6183.781010297,3078.947265625,1020.5128173828125
6183.782173219,3078.947265625,1022.7106323242188
6183.814767481,3078.947265625,1022.7106323242188
6183.856070428,3078.947265625,1023.4432373046875
6183.857199294,3074.744140625,1023.4432373046875
6183.894750741,3078.947265625,1027.106201171875
6183.895907669,3078.947265625,1024.908447265625
6183.928510932,3078.947265625,1024.17578125
6183.929728916,3074.744140625,1024.17578125
6183.962242147,3070.55224609375,1027.106201171875
6183.963398055,3074.744140625,1026.3736572265625
6183.996044552,3074.744140625,1027.8388671875
6184.003546326,3074.744140625,1028.5714111328125
6184.03596798,3074.744140625,1029.3040771484375
6184.068668328,3074.744140625,1029.3040771484375
6184.069738817,3074.744140625,1030.03662109375
6184.102506423,3074.744140625,1030.03662109375
6184.103492675,3074.744140625,1030.03662109375
6184.135996777,3074.744140625,1030.03662109375
6184.143559401,3078.947265625,1030.03662109375
6184.198539736,3078.947265625,1027.106201171875
6184.199689752,3074.744140625,1025.6409912109375
6184.202267185,3078.947265625,1027.106201171875
6184.235052438,3074.744140625,1025.6409912109375
6184.267505504,3074.744140625,1027.8388671875
6184.268462457,3074.744140625,1028.5714111328125
6184.301216119,3074.744140625,1029.3040771484375
6184.302216184,3087.388671875,1030.03662109375
6184.334891277,3095.876220703125,1022.7106323242188
6184.367505905,3100.1376953125,1019.047607421875
6184.36845255,3108.695556640625,1016.8497924804688
6184.401022557,3112.992431640625,1172.893798828125
6184.406265688,3125.9541015625,1243.223388671875
6184.438554307,3125.9541015625,1272.5274658203125
6184.439665741,3134.655517578125,1286.4468994140625
6184.5123339,3147.798828125,1288.6446533203125
6184.513515358,3156.622314453125,1284.2490234375
6184.514818802,3161.052734375,1276.923095703125
6184.527511558,3161.052734375,1274.7252197265625
6184.561096253,3165.495361328125,1273.99267578125
6184.567497837,3165.495361328125,1269.5970458984375
6184.599797679,3156.622314453125,1267.3992919921875
6184.600898882,3156.622314453125,1268.864501953125
6184.633718287,3156.622314453125,1269.5970458984375
6184.666245925,3156.622314453125,1269.5970458984375
6184.667303047,3161.052734375,1270.3297119140625
6184.700001006,3165.495361328125,1271.794921875
6184.704788542,3165.495361328125,1268.864501953125
6184.737591244,3165.495361328125,1267.3992919921875
6184.738548895,3161.052734375,1266.6666259765625
6184.798741594,3156.622314453125,1269.5970458984375
6184.799977227,3156.622314453125,1270.3297119140625
6184.800987172,3165.495361328125,1269.5970458984375
6184.833566355,3174.418701171875,1267.3992919921875
6184.866148055,3178.899169921875,1262.2711181640625
6184.867287072,3187.898193359375,1260.805908203125
6184.899849682,3215.203369140625,1255.6776123046875
6184.900925164,3295.171875,1243.223388671875
6184.93375447,3473.0146484375,1210.2564697265625
6184.966266419,3840.153564453125,1145.054931640625
6184.967288035,4437.93115234375,1190.4761962890625
6184.999994871,4011.130859375,1090.10986328125
6185.002879429,3769.4560546875,1123.076904296875
6185.034778888,3665.175048828125,1038.09521484375
6185.100034482,3683.15625,1019.047607421875
6185.101347673,3665.175048828125,1005.8607788085938
6185.102281227,3612.26953125,1003.6630249023438
6185.103793426,3560.86962890625,1011.7216186523438
6185.136013829,3521.89208984375,1029.3040771484375
6185.14109656,3478.37841796875,1043.9560546875
6185.173538786,3446.442138671875,1062.2711181640625
6185.20630549,3425.475341796875,1078.3883056640625
6185.207673746,3404.761962890625,1091.5750732421875
6185.239999581,3384.297607421875,1101.83154296875
6185.24097409,3374.1572265625,1112.820556640625
6185.273782592,3369.10986328125,1122.3443603515625
6185.306257261,3354.05810546875,1130.4029541015625
6185.307320825,3354.05810546875,1136.996337890625
6185.339764771,3344.097900390625,1140.6593017578125
6185.340934966,3339.14013671875,1143.5897216796875
6185.397532776,3334.19677734375,1147.9853515625
6185.398836744,3329.268310546875,1151.6483154296875
6185.40480623,3324.354248046875,1156.776611328125
6185.437231119,3324.354248046875,1158.24169921875
6185.438796322,3319.45458984375,1159.7069091796875
6185.471074075,3314.569580078125,1163.3699951171875
6185.503502902,3309.69873046875,1166.3004150390625
6185.505070797,3304.84228515625,1170.6959228515625
6185.537227403,3304.84228515625,1171.4285888671875
6185.538437281,3300.0,1172.1611328125
6185.570978503,3300.0,1175.82421875
6185.603491788,3295.171875,1177.2894287109375
6185.604668719,3295.171875,1179.4871826171875
6185.637287981,3290.35791015625,1180.2197265625
6185.644860605,3290.35791015625,1184.6153564453125
6185.701049077,3290.35791015625,1185.3480224609375
6185.702181993,3285.55810546875,1186.813232421875
6185.703458877,3285.55810546875,1185.3480224609375
6185.736289089,3285.55810546875,1184.6153564453125
6185.737218687,3280.77197265625,1184.6153564453125
6185.776062706,3276.0,1189.010986328125
6185.783481713,3280.77197265625,1191.208740234375
6185.816170674,3276.0,1191.208740234375
6185.848500456,3271.241943359375,1192.6739501953125
6185.849655737,3266.49755859375,1196.3370361328125
6185.882289079,3261.766845703125,1196.3370361328125
6185.883788099,3261.766845703125,1200.0
6185.916020128,3257.0498046875,1201.4652099609375
6185.921060924,3252.3466796875,1203.6629638671875
6185.95366692,3252.3466796875,1208.05859375
6185.99728587,3252.3466796875,1210.2564697265625
6185.998442614,3247.65673828125,1210.989013671875
6186.006030333,3247.65673828125,1208.05859375
6186.038550527,3242.98046875,1205.86083984375
6186.039887265,3247.65673828125,1209.5238037109375
6186.072299486,3242.98046875,1207.3260498046875
6186.10508964,3242.98046875,1208.791259765625
6186.105953929,3242.98046875,1210.989013671875
6186.138485412,3242.98046875,1210.989013671875
6186.15511513,3242.98046875,1210.989013671875
6186.187490471,3233.66845703125,1211.7215576171875
6186.188696433,3238.31787109375,1216.1171875
6186.222349209,3238.31787109375,1214.6519775390625
6186.223510382,3238.31787109375,1213.91943359375
6186.25607405,3238.31787109375,1213.91943359375
6186.299995912,3233.66845703125,1213.91943359375
6186.300988274,3233.66845703125,1216.849853515625
6186.302129376,3233.66845703125,1218.3150634765625
6186.334896599,3233.66845703125,1219.7802734375
6186.335985392,3233.66845703125,1220.5128173828125
6186.368710129,3233.66845703125,1219.7802734375
6186.416258262,3229.0322265625,1219.7802734375
6186.417261738,3233.66845703125,1219.047607421875
6186.419710739,3233.66845703125,1219.7802734375
6186.452389306,3229.0322265625,1220.5128173828125
6186.484868067,3229.0322265625,1219.047607421875
6186.48619792,3229.0322265625,1218.3150634765625
6186.51865695,3224.409423828125,1218.3150634765625
6186.519775118,3224.409423828125,1221.97802734375
6186.552534366,3224.409423828125,1223.4432373046875
6186.594787574,3224.409423828125,1224.17578125
6186.595967259,3224.409423828125,1224.908447265625
6186.628655528,3219.7998046875,1224.908447265625
6186.629706306,3219.7998046875,1225.6409912109375
6186.662528143,3210.6201171875,1226.3736572265625
6186.663466829,3210.6201171875,1228.5714111328125
6186.696230953,3201.492431640625,1230.03662109375
6186.697286562,3206.0498046875,1235.164794921875
6186.72977788,3215.203369140625,1236.6300048828125
6186.762391524,3215.203369140625,1234.4322509765625
6186.763444357,3215.203369140625,1233.6995849609375
6186.796022878,3215.203369140625,1233.6995849609375
6186.828557805,3215.203369140625,1233.6995849609375
6186.829677876,3215.203369140625,1233.6995849609375
6186.898670071,3210.6201171875,1232.967041015625
6186.899740064,3215.203369140625,1232.234375
6186.900895822,3210.6201171875,1232.967041015625
6186.902292871,3210.6201171875,1231.5018310546875
6186.934858897,3210.6201171875,1230.769287109375
6186.967443076,3206.0498046875,1230.769287109375
6186.968533188,3206.0498046875,1234.4322509765625
6187.001273515,3201.492431640625,1235.8974609375
6187.002774744,3206.0498046875,1238.09521484375
6187.056271344,3206.0498046875,1238.09521484375
6187.057308894,3206.0498046875,1238.09521484375
6187.063744425,3201.492431640625,1238.09521484375
6187.096007425,3206.0498046875,1238.827880859375
6187.128531516,3206.0498046875,1238.827880859375
6187.129690519,3206.0498046875,1238.09521484375
6187.193852924,3201.492431640625,1238.09521484375
6187.194709428,3206.0498046875,1238.827880859375
6187.196301763,3206.0498046875,1238.09521484375
6187.229770545,3206.0498046875,1238.09521484375
6187.230886782,3201.492431640625,1238.09521484375
6187.263832839,3196.9482421875,1239.5604248046875
6187.264904729,3196.9482421875,1243.223388671875
6187.297470445,3196.9482421875,1244.6885986328125
6187.298437604,3201.492431640625,1245.4212646484375
6187.3313279,3201.492431640625,1242.4908447265625
6187.363665827,3196.9482421875,1241.025634765625
6187.364682727,3201.492431640625,1243.9560546875
6187.397490998,3196.9482421875,1241.75830078125
6187.402471796,3196.9482421875,1243.9560546875
6187.434793309,3196.9482421875,1245.4212646484375
6187.507395859,3196.9482421875,1246.15380859375
6187.508475881,3192.416748046875,1246.15380859375
6187.509744766,3196.9482421875,1244.6885986328125
6187.513739895,3196.9482421875,1246.15380859375
6187.546244321,3196.9482421875,1246.15380859375
6187.548517791,3196.9482421875,1246.15380859375
6187.581071308,3196.9482421875,1246.15380859375
6187.582309591,3192.416748046875,1246.15380859375
6187.615048316,3192.416748046875,1245.4212646484375
6187.616049438,3192.416748046875,1244.6885986328125
6187.648727517,3187.898193359375,1244.6885986328125
6187.696255969,3192.416748046875,1247.6190185546875
6187.697305495,3192.416748046875,1246.15380859375
6187.70265634,3192.416748046875,1244.6885986328125
6187.734895158,3192.416748046875,1244.6885986328125
6187.797362857,3192.416748046875,1244.6885986328125
6187.798461497,3187.898193359375,1244.6885986328125
6187.799759844,3187.898193359375,1248.3516845703125
6187.807386939,3183.392333984375,1249.084228515625
6187.839842697,3187.898193359375,1251.2821044921875
6187.840978635,3187.898193359375,1250.5494384765625
6187.873607535,3187.898193359375,1250.5494384765625
6187.906246287,3187.898193359375,1250.5494384765625
6187.907392155,3187.898193359375,1250.5494384765625
6187.939846802,3183.392333984375,1251.2821044921875
6187.940963276,3183.392333984375,1252.0146484375
6187.973636845,3183.392333984375,1252.7471923828125
6187.978647508,3183.392333984375,1252.7471923828125
6188.011129355,3183.392333984375,1253.4798583984375
6188.043710747,3178.899169921875,1252.7471923828125
6188.044686974,3183.392333984375,1257.142822265625
6188.095140492,3178.899169921875,1254.945068359375
6188.096044616,3174.418701171875,1257.87548828125
6188.09730657,3174.418701171875,1257.87548828125
6188.129902726,3178.899169921875,1257.142822265625
6188.162849298,3174.418701171875,1258.6080322265625
6188.163923769,3174.418701171875,1258.6080322265625
6188.196376491,3178.899169921875,1257.142822265625
6188.228867479,3178.899169921875,1258.6080322265625
6188.229907929,3178.899169921875,1259.3406982421875
6188.262585384,3178.899169921875,1259.3406982421875
6188.263655685,3174.418701171875,1260.0732421875
6188.296395635,3174.418701171875,1258.6080322265625
6188.297339473,3174.418701171875,1257.87548828125
6188.336119751,3178.899169921875,1257.87548828125
6188.34110832,3174.418701171875,1257.87548828125
6188.393670599,3174.418701171875,1257.87548828125
6188.394884672,3174.418701171875,1257.87548828125
6188.427533122,3178.899169921875,1257.87548828125
6188.428924888,3178.899169921875,1259.3406982421875
6188.461190146,3174.418701171875,1259.3406982421875
6188.462350267,3183.392333984375,1258.6080322265625
6188.495132561,3178.899169921875,1255.6776123046875
6188.502460003,3178.899169921875,1257.87548828125
6188.534840725,3178.899169921875,1258.6080322265625
6188.567469873,3174.418701171875,1259.3406982421875
6188.568624514,3169.95068359375,1257.87548828125
6188.601201666,3165.495361328125,1261.5384521484375
6188.602336721,3165.495361328125,1264.4688720703125
6188.634888486,3165.495361328125,1265.201416015625
6188.698809721,3165.495361328125,1265.201416015625
6188.699822688,3165.495361328125,1265.93408203125
6188.701324783,3165.495361328125,1266.6666259765625
6188.733649034,3169.95068359375,1266.6666259765625
6188.734907897,3174.418701171875,1265.201416015625
6188.736394146,3178.899169921875,1261.5384521484375
6188.768668835,3174.418701171875,1260.805908203125
6188.801212159,3174.418701171875,1258.6080322265625
6188.802320096,3174.418701171875,1258.6080322265625
6188.835018984,3169.95068359375,1257.87548828125
6188.842454335,3169.95068359375,1261.5384521484375
6188.874917455,3165.495361328125,1263.003662109375
6188.907640101,3169.95068359375,1264.4688720703125
6188.908624351,3169.95068359375,1263.7362060546875
6188.941269832,3165.495361328125,1263.7362060546875
6188.942289193,3169.95068359375,1265.201416015625
6189.009914595,3165.495361328125,1264.4688720703125
6189.011102576,3165.495361328125,1265.93408203125
6189.012273846,3165.495361328125,1265.93408203125
6189.044956472,3161.052734375,1265.93408203125
6189.046146759,3161.052734375,1269.5970458984375
6189.07887473,3156.622314453125,1271.062255859375
6189.079847826,3161.052734375,1271.062255859375
6189.112445415,3161.052734375,1271.794921875
6189.144929693,3156.622314453125,1272.5274658203125
6189.146048898,3156.622314453125,1271.794921875
6189.178857329,3152.204345703125,1271.062255859375
6189.183650773,3156.622314453125,1274.7252197265625
6189.216257882,3152.204345703125,1271.794921875
6189.217315947,3152.204345703125,1274.7252197265625
6189.249946959,3152.204345703125,1275.4578857421875
6189.293726859,3147.798828125,1276.923095703125
6189.294809721,3152.204345703125,1278.3883056640625
6189.302409418,3147.798828125,1277.6556396484375
6189.335681173,3147.798828125,1277.6556396484375
6189.34244719,3147.798828125,1278.3883056640625
6189.37494254,3143.405517578125,1279.120849609375
6189.376190462,3143.405517578125,1282.05126953125
6189.408849127,3139.0244140625,1284.2490234375
6189.442335463,3139.0244140625,1284.2490234375
6189.443561837,3143.405517578125,1284.2490234375
6189.476194231,3147.798828125,1284.981689453125
6189.508625975,3169.95068359375,1282.05126953125
6189.509823597,3314.569580078125,1272.5274658203125
6189.544902354,3489.15576171875,1218.3150634765625
6189.546046785,3623.893798828125,1140.6593017578125
6189.618749558,3364.07763671875,1073.99267578125
6189.619844408,3242.98046875,1106.22705078125
6189.621073265,3215.203369140625,1161.90478515625
6189.627627518,3196.9482421875,1200.0
6189.660132315,3187.898193359375,1224.17578125
6189.661452069,3183.392333984375,1238.09521484375
6189.693869911,3174.418701171875,1245.4212646484375
6189.694844075,3187.898193359375,1251.2821044921875
6189.727619061,3196.9482421875,1251.2821044921875
6189.760161453,3192.416748046875,1248.3516845703125
6189.761459421,3192.416748046875,1246.15380859375
6189.794964441,3196.9482421875,1245.4212646484375
6189.798598383,3206.0498046875,1245.4212646484375
6189.831171031,3206.0498046875,1241.75830078125
6189.893841769,3215.203369140625,1239.5604248046875
6189.894909051,3210.6201171875,1236.6300048828125
6189.896074158,3201.492431640625,1233.6995849609375
6189.898584794,3192.416748046875,1237.3626708984375
6189.931354098,3183.392333984375,1241.025634765625
6189.963888585,3174.418701171875,1247.6190185546875
6189.964892959,3169.95068359375,1252.7471923828125
6189.999865163,3161.052734375,1258.6080322265625
6190.001116337,3161.052734375,1265.93408203125
6190.034967543,3156.622314453125,1269.5970458984375
6190.036402033,3152.204345703125,1270.3297119140625
6190.068715904,3276.0,1273.2601318359375
6190.101177744,3399.62255859375,1231.5018310546875
6190.102316491,3420.2734375,1172.1611328125
6190.136365762,3404.761962890625,1139.9267578125
6190.14237639,3441.176513671875,1125.2747802734375
6190.198585136,3532.941162109375,1111.3553466796875
6190.199928054,3521.89208984375,1079.120849609375
6190.201388121,3505.447509765625,1068.1318359375
6190.219944815,3500.0,1066.6666259765625
6190.256143406,3532.941162109375,1067.3992919921875
6190.263586391,3738.17431640625,1057.87548828125
6190.296154686,4327.08935546875,1013.91943359375
6190.302106912,4648.60693359375,1027.106201171875
6190.333606906,4245.52294921875,987.5457763671875
6190.334822944,3886.5400390625,1028.5714111328125
6190.392652236,3612.26953125,1123.076904296875
6190.393948941,3532.941162109375,1068.1318359375
6190.426377675,3505.447509765625,1058.6080322265625
6190.42741605,3473.0146484375,1063.003662109375
6190.459932732,3435.9267578125,1075.4578857421875
6190.461543466,3409.916748046875,1088.6446533203125
6190.499938988,3394.498779296875,1104.029296875
6190.501004164,3384.297607421875,1112.820556640625
6190.533821641,3369.10986328125,1118.6812744140625
6190.534886512,3349.070556640625,1128.937744140625
6190.567755723,3334.19677734375,1139.9267578125
6190.599992575,3324.354248046875,1147.9853515625
6190.601097545,3324.354248046875,1154.5787353515625
6190.63366648,3324.354248046875,1158.24169921875
6190.666235849,3319.45458984375,1158.974365234375
6190.667315824,3324.354248046875,1163.3699951171875
6190.699983955,3329.268310546875,1161.90478515625
6190.701293669,3344.097900390625,1161.172119140625
6190.733876277,3339.14013671875,1153.84619140625
6190.741137027,3334.19677734375,1153.113525390625
6190.803694437,3329.268310546875,1153.84619140625
6190.804826254,3329.268310546875,1157.5091552734375
6190.806064526,3329.268310546875,1159.7069091796875
6190.838692436,3334.19677734375,1160.4395751953125
6190.83981818,3344.097900390625,1157.5091552734375
6190.896305929,3349.070556640625,1151.6483154296875
6190.897280459,3359.060302734375,1150.915771484375
6190.898546446,3369.10986328125,1145.78759765625
6190.93140645,3374.1572265625,1142.857177734375
6190.963670006,3369.10986328125,1136.996337890625
6190.964858035,3359.060302734375,1137.7288818359375
6190.997643976,3344.097900390625,1139.194091796875
6190.998619813,3339.14013671875,1142.857177734375
6191.031144936,3329.268310546875,1147.9853515625
6191.093750257,3314.569580078125,1154.5787353515625
6191.094885761,3309.69873046875,1161.90478515625
6191.096113665,3300.0,1169.230712890625
6191.12887033,3295.171875,1174.3590087890625
6191.129907175,3295.171875,1178.02197265625
6191.162378142,3285.55810546875,1178.754638671875
6191.163528677,3290.35791015625,1182.4176025390625
6191.196249863,3295.171875,1185.3480224609375
6191.197294601,3354.05810546875,1183.150146484375
6191.232403979,3364.07763671875,1161.90478515625
6191.264910642,3374.1572265625,1147.2528076171875
6191.266067174,3369.10986328125,1139.194091796875
6191.298622078,3349.070556640625,1138.4615478515625
6191.299826647,3339.14013671875,1145.054931640625
6191.33261165,3334.19677734375,1149.4505615234375
6191.333627845,3329.268310546875,1151.6483154296875
6191.396132478,3324.354248046875,1156.776611328125
6191.397302027,3319.45458984375,1158.974365234375
6191.398636061,3319.45458984375,1162.6373291015625
6191.431201484,3324.354248046875,1165.5677490234375
6191.463739747,3329.268310546875,1163.3699951171875
6191.464833744,3334.19677734375,1161.90478515625
6191.497439548,3339.14013671875,1157.5091552734375
6191.498615749,3349.070556640625,1155.3114013671875
6191.536157519,3349.070556640625,1152.3809814453125
6191.537607444,3349.070556640625,1151.6483154296875
6191.570147863,3349.070556640625,1150.18310546875
6191.602379371,3359.060302734375,1150.18310546875
6191.603540152,3349.070556640625,1145.78759765625
6191.636363487,3354.05810546875,1147.9853515625
6191.637774298,3349.070556640625,1145.78759765625
6191.698624307,3344.097900390625,1147.9853515625
6191.699806587,3339.14013671875,1146.5201416015625
6191.701459668,3339.14013671875,1150.18310546875
6191.73359537,3344.097900390625,1151.6483154296875
6191.741365323,3334.19677734375,1148.7178955078125
6191.773905839,3334.19677734375,1152.3809814453125
6191.774934372,3329.268310546875,1153.113525390625
6191.807744921,3329.268310546875,1157.5091552734375
6191.839978659,3324.354248046875,1159.7069091796875
6191.841108149,3324.354248046875,1159.7069091796875
6191.873767851,3324.354248046875,1160.4395751953125
6191.906127071,3314.569580078125,1160.4395751953125
6191.907295275,3314.569580078125,1164.835205078125
6191.940148673,3309.69873046875,1167.032958984375
6191.941499341,3309.69873046875,1171.4285888671875
6192.005151493,3304.84228515625,1174.3590087890625
6192.006074417,3304.84228515625,1172.893798828125
6192.007344823,3300.0,1172.893798828125
6192.041226537,3300.0,1175.82421875
6192.042389673,3300.0,1178.02197265625
6192.075100052,3295.171875,1178.754638671875
6192.079866314,3295.171875,1179.4871826171875
6192.112376032,3295.171875,1180.952392578125
6192.113573156,3290.35791015625,1180.952392578125
6192.146311358,3285.55810546875,1184.6153564453125
6192.176289823,3290.35791015625,1183.8828125
6192.177286369,3285.55810546875,1186.08056640625
6192.209961843,3285.55810546875,1185.3480224609375
6192.242545381,3285.55810546875,1184.6153564453125
6192.243614036,3285.55810546875,1185.3480224609375
6192.296187684,3280.77197265625,1184.6153564453125
6192.297352244,3280.77197265625,1188.2784423828125
6192.298878274,3280.77197265625,1189.7435302734375
6192.331136855,3280.77197265625,1191.208740234375
6192.363684573,3276.0,1191.208740234375
6192.364820407,3280.77197265625,1191.94140625
6192.397416549,3276.0,1191.94140625
6192.402626914,3271.241943359375,1193.4066162109375
6192.434930645,3276.0,1197.069580078125
6192.436074248,3271.241943359375,1194.871826171875
6192.468865549,3271.241943359375,1197.80224609375
6192.501331715,3271.241943359375,1199.2674560546875
6192.502509618,3271.241943359375,1200.0
6192.534974973,3271.241943359375,1200.0
6192.541176187,3271.241943359375,1200.0
6192.597405431,3271.241943359375,1200.0
6192.598689594,3271.241943359375,1200.0
6192.59976509,3271.241943359375,1200.7325439453125
6192.632746042,3266.49755859375,1200.7325439453125
6192.637404757,3271.241943359375,1198.5347900390625
6192.670042742,3271.241943359375,1199.2674560546875
6192.702741283,3266.49755859375,1200.0
6192.703568042,3271.241943359375,1198.5347900390625
6192.736292075,3271.241943359375,1199.2674560546875
6192.737278785,3266.49755859375,1200.0
6192.76997118,3271.241943359375,1198.5347900390625
6192.777647973,3271.241943359375,1199.2674560546875
6192.816341296,3266.49755859375,1200.0
6192.817433613,3271.241943359375,1198.5347900390625
6192.850255708,3266.49755859375,1199.2674560546875
6192.892512048,3271.241943359375,1197.80224609375
6192.89351774,3271.241943359375,1199.2674560546875
6192.894998634,3271.241943359375,1200.0
6192.927614951,3271.241943359375,1200.0
6192.960038415,3266.49755859375,1200.0
6192.961076899,3266.49755859375,1198.5347900390625
6192.993779373,3266.49755859375,1197.80224609375
6192.998795611,3271.241943359375,1197.069580078125
6193.031372881,3266.49755859375,1198.5347900390625
6193.063765308,3266.49755859375,1197.80224609375
6193.064822795,3266.49755859375,1197.069580078125
6193.09754204,3261.766845703125,1196.3370361328125
6193.098666871,3266.49755859375,1200.0
6193.131294355,3266.49755859375,1198.5347900390625
6193.138711749,3266.49755859375,1197.80224609375
6193.201342762,3266.49755859375,1197.069580078125
6193.202628242,3266.49755859375,1197.069580078125
6193.203750293,3266.49755859375,1197.069580078125
6193.236304848,3261.766845703125,1197.069580078125
6193.237455922,3261.766845703125,1200.7325439453125
6193.270067921,3261.766845703125,1202.19775390625
6193.302814459,3257.0498046875,1202.930419921875
6193.303787505,3257.0498046875,1204.3956298828125
6193.336494548,3257.0498046875,1204.3956298828125
6193.337527732,3266.49755859375,1205.128173828125
6193.370064307,3261.766845703125,1200.7325439453125
6193.371175944,3257.0498046875,1202.19775390625
6193.40371688,3261.766845703125,1203.6629638671875
6193.456357675,3257.0498046875,1203.6629638671875
6193.457464848,3261.766845703125,1204.3956298828125
6193.458916891,3261.766845703125,1204.3956298828125
6193.495014636,3261.766845703125,1203.6629638671875
6193.496160947,3261.766845703125,1203.6629638671875
6193.528773158,3257.0498046875,1203.6629638671875
6193.535174531,3261.766845703125,1204.3956298828125
6193.567673521,3261.766845703125,1203.6629638671875
6193.601350597,3257.0498046875,1203.6629638671875
6193.60239853,3261.766845703125,1205.128173828125
6193.635036966,3257.0498046875,1203.6629638671875
6193.641327794,3261.766845703125,1204.3956298828125
6193.6737897,3257.0498046875,1204.3956298828125
6193.681669352,3261.766845703125,1205.128173828125
6193.713799404,3261.766845703125,1204.3956298828125
6193.714962517,3257.0498046875,1203.6629638671875
6193.747517908,3261.766845703125,1204.3956298828125
6193.800101042,3257.0498046875,1203.6629638671875
6193.80115764,3257.0498046875,1205.128173828125
6193.802397276,3257.0498046875,1205.128173828125
6193.830206147,3257.0498046875,1205.128173828125
6193.862514712,3257.0498046875,1205.128173828125
6193.863677821,3261.766845703125,1205.128173828125
6193.896540202,3261.766845703125,1203.6629638671875
6193.897566694,3261.766845703125,1204.3956298828125
6193.930119122,3257.0498046875,1204.3956298828125
6193.962556012,3257.0498046875,1205.128173828125
6193.964010679,3257.0498046875,1205.128173828125
6193.996460225,3257.0498046875,1205.128173828125
6194.028880676,3257.0498046875,1205.128173828125
6194.029993803,3257.0498046875,1205.128173828125
6194.037678868,3252.3466796875,1205.86083984375
6194.110145294,3257.0498046875,1208.791259765625
6194.111278581,3257.0498046875,1207.3260498046875
6194.112457175,3257.0498046875,1206.5933837890625
6194.126277076,3257.0498046875,1205.86083984375
6194.159284086,3257.0498046875,1205.86083984375
6194.160007501,3252.3466796875,1205.128173828125
6194.192674503,3242.98046875,1208.791259765625
6194.193712388,3196.9482421875,1202.930419921875
6194.226236553,3192.416748046875,1225.6409912109375
6194.242742648,3183.392333984375,1234.4322509765625
6194.275052616,3183.392333984375,1243.223388671875
6194.276141332,3178.899169921875,1248.3516845703125
6194.308892541,3183.392333984375,1253.4798583984375
6194.341282338,3183.392333984375,1252.7471923828125
6194.342385853,3183.392333984375,1252.7471923828125
6194.405079754,3178.899169921875,1252.7471923828125
6194.406152062,3178.899169921875,1256.4102783203125
6194.407684288,3174.418701171875,1257.87548828125
6194.440369464,3178.899169921875,1257.142822265625
6194.441208314,3178.899169921875,1258.6080322265625
6194.473975155,3174.418701171875,1259.3406982421875
6194.481610244,3178.899169921875,1257.87548828125
6194.514000955,3174.418701171875,1258.6080322265625
6194.514921281,3174.418701171875,1257.87548828125
6194.547745301,3174.418701171875,1257.142822265625
6194.580284046,3178.899169921875,1256.4102783203125
6194.581621566,3174.418701171875,1258.6080322265625
6194.613846084,3178.899169921875,1257.142822265625
6194.646499422,3178.899169921875,1257.87548828125
6194.647530179,3178.899169921875,1259.3406982421875
6194.701245725,3178.899169921875,1259.3406982421875
6194.702465318,3174.418701171875,1259.3406982421875
6194.703825095,3174.418701171875,1257.87548828125
6194.736440965,3178.899169921875,1257.142822265625
6194.73754586,3178.899169921875,1259.3406982421875
6194.770061532,3174.418701171875,1259.3406982421875
6194.802581549,3174.418701171875,1257.87548828125
6194.803703425,3174.418701171875,1257.87548828125
6194.836324716,3178.899169921875,1257.142822265625
6194.83741923,3174.418701171875,1258.6080322265625
6194.870253176,3178.899169921875,1257.87548828125
6194.902649148,3178.899169921875,1258.6080322265625
6194.903825962,3174.418701171875,1259.3406982421875
6194.936252778,3174.418701171875,1258.6080322265625
6194.937391797,3178.899169921875,1257.87548828125
6194.997763697,3178.899169921875,1258.6080322265625
6194.999095274,3178.899169921875,1259.3406982421875
6195.000360731,3183.392333984375,1259.3406982421875
6195.032590171,3183.392333984375,1256.4102783203125
6195.038190638,3178.899169921875,1254.21240234375
6195.070055358,3178.899169921875,1257.142822265625
6195.077524238,3178.899169921875,1258.6080322265625
6195.110043271,3178.899169921875,1258.6080322265625
6195.142533984,3178.899169921875,1259.3406982421875
6195.143647898,3178.899169921875,1259.3406982421875
6195.176302348,3178.899169921875,1259.3406982421875
6195.177438487,3178.899169921875,1259.3406982421875
6195.210254082,3178.899169921875,1260.0732421875
6195.24278356,3183.392333984375,1259.3406982421875
6195.244130825,3183.392333984375,1256.4102783203125
6195.305011641,3178.899169921875,1254.21240234375
6195.30624681,3183.392333984375,1257.142822265625
6195.308936196,3183.392333984375,1254.945068359375
6195.340057842,3183.392333984375,1253.4798583984375
6195.341207912,3183.392333984375,1253.4798583984375
6195.376331485,3187.898193359375,1252.0146484375
6195.377728778,3187.898193359375,1252.0146484375
6195.410212323,3192.416748046875,1251.2821044921875
6195.442586119,3187.898193359375,1247.6190185546875
6195.444144192,3192.416748046875,1249.084228515625
6195.476300123,3187.898193359375,1246.15380859375
6195.477396359,3192.416748046875,1248.3516845703125
6195.510207395,3192.416748046875,1246.15380859375
6195.517699424,3192.416748046875,1244.6885986328125
6195.550052608,3196.9482421875,1244.6885986328125
6195.595307413,3196.9482421875,1245.4212646484375
6195.596245908,3196.9482421875,1246.15380859375
6195.597498177,3201.492431640625,1246.15380859375
6195.630199667,3196.9482421875,1242.4908447265625
6195.631309115,3196.9482421875,1244.6885986328125
6195.664015523,3196.9482421875,1245.4212646484375
6195.696205477,3196.9482421875,1246.15380859375
6195.697400535,3196.9482421875,1246.15380859375
6195.730212445,3196.9482421875,1246.15380859375
6195.762738182,3196.9482421875,1246.15380859375
6195.763773151,3196.9482421875,1246.15380859375
6195.796521107,3192.416748046875,1246.15380859375
6195.797836229,3196.9482421875,1244.6885986328125
6195.830133135,3201.492431640625,1245.4212646484375
6195.892762609,3196.9482421875,1242.4908447265625
6195.89379448,3196.9482421875,1244.6885986328125
6195.895078687,3196.9482421875,1245.4212646484375
6195.900283414,3201.492431640625,1246.15380859375
6195.957534077,3201.492431640625,1242.4908447265625
6195.958684754,3196.9482421875,1241.025634765625
6195.95993371,3206.0498046875,1243.9560546875
6196.016271759,3201.492431640625,1241.025634765625
6196.017537398,3196.9482421875,1240.2930908203125
6196.019254252,3201.492431640625,1243.223388671875
6196.052791902,3201.492431640625,1241.75830078125
6196.057496822,3196.9482421875,1240.2930908203125
6196.090162109,3206.0498046875,1243.9560546875
6196.09158156,3201.492431640625,1241.025634765625
6196.1241064,3201.492431640625,1240.2930908203125
6196.156527266,3206.0498046875,1239.5604248046875
6196.157703816,3206.0498046875,1238.827880859375
6196.192583876,3206.0498046875,1238.827880859375
6196.197790598,3215.203369140625,1238.827880859375
6196.230141413,3224.409423828125,1238.827880859375
6196.262487624,3233.66845703125,1232.967041015625
6196.263702691,3229.0322265625,1225.6409912109375
6196.296477302,3242.98046875,1222.7105712890625
6196.298778844,3257.0498046875,1219.047607421875
6196.331385645,3257.0498046875,1211.7215576171875
6196.336377313,3261.766845703125,1208.791259765625
6196.368864011,3266.49755859375,1205.86083984375
6196.401430491,3266.49755859375,1200.7325439453125
6196.402450777,3266.49755859375,1198.5347900390625
6196.436269321,3261.766845703125,1197.069580078125
6196.43742965,3266.49755859375,1200.7325439453125
6196.502564135,3266.49755859375,1198.5347900390625
6196.50404886,3266.49755859375,1197.80224609375
6196.505039222,3266.49755859375,1197.069580078125
6196.537549071,3266.49755859375,1197.069580078125
6196.538699005,3261.766845703125,1197.069580078125
6196.571639566,3266.49755859375,1200.0
6196.572827276,3266.49755859375,1198.5347900390625
6196.605163924,3266.49755859375,1197.80224609375
6196.656478903,3266.49755859375,1197.069580078125
6196.65752769,3266.49755859375,1197.069580078125
6196.659112187,3261.766845703125,1197.069580078125
6196.691410943,3261.766845703125,1200.0
6196.723832293,3266.49755859375,1202.19775390625
6196.724973198,3261.766845703125,1200.0
6196.757600625,3261.766845703125,1201.4652099609375
6196.758849176,3261.766845703125,1202.930419921875
6196.797631433,3261.766845703125,1202.930419921875
6196.798764381,3261.766845703125,1202.930419921875
6196.831369057,3261.766845703125,1203.6629638671875
6196.838804849,3266.49755859375,1203.6629638671875
6196.871446045,3266.49755859375,1199.2674560546875
6196.878754569,3266.49755859375,1198.5347900390625
6196.911371697,3266.49755859375,1197.80224609375
6196.917559796,3266.49755859375,1197.80224609375
6196.950154743,3266.49755859375,1197.069580078125
6196.954924417,3266.49755859375,1197.069580078125
6196.987744684,3261.766845703125,1197.069580078125
6197.020000527,3261.766845703125,1200.7325439453125
6197.021648775,3266.49755859375,1202.19775390625
6197.053705497,3266.49755859375,1199.2674560546875
6197.055004585,3266.49755859375,1197.80224609375
6197.103765863,3266.49755859375,1197.80224609375
6197.104948214,3261.766845703125,1197.069580078125
6197.137775778,3257.0498046875,1200.0
6197.138757017,3261.766845703125,1203.6629638671875
6197.171625294,3261.766845703125,1202.930419921875
6197.203916347,3261.766845703125,1203.6629638671875
6197.204970258,3261.766845703125,1203.6629638671875
6197.23777203,3252.3466796875,1203.6629638671875
6197.238708291,3257.0498046875,1208.05859375
6197.29641058,3257.0498046875,1206.5933837890625
6197.297622046,3257.0498046875,1205.86083984375
6197.299113213,3257.0498046875,1205.86083984375
6197.331557129,3257.0498046875,1205.86083984375
6197.39639771,3252.3466796875,1205.86083984375
6197.397474332,3257.0498046875,1208.791259765625
6197.398702505,3252.3466796875,1207.3260498046875
6197.400057867,3252.3466796875,1210.2564697265625
6197.432607334,3252.3466796875,1210.989013671875
6197.433644865,3252.3466796875,1211.7215576171875
6197.466663255,3252.3466796875,1212.4542236328125
6197.498873661,3247.65673828125,1212.4542236328125
6197.501486374,3247.65673828125,1208.05859375
6197.533893737,3247.65673828125,1206.5933837890625
6197.534953888,3247.65673828125,1205.86083984375
6197.56786808,3242.98046875,1205.128173828125
6197.600159957,3242.98046875,1208.791259765625
6197.601286796,3247.65673828125,1209.5238037109375
6197.633962272,3242.98046875,1207.3260498046875
6197.635339975,3242.98046875,1209.5238037109375
6197.701600785,3242.98046875,1210.989013671875
6197.702618872,3242.98046875,1210.989013671875
6197.703848338,3242.98046875,1210.989013671875
6197.736568566,3233.66845703125,1211.7215576171875
6197.737632007,3242.98046875,1216.1171875
6197.770294236,3238.31787109375,1213.186767578125
6197.775156331,3238.31787109375,1213.91943359375
6197.80765095,3238.31787109375,1213.186767578125
6197.831324511,3238.31787109375,1213.186767578125
6197.863934334,3233.66845703125,1213.186767578125
6197.865058261,3233.66845703125,1216.849853515625
6197.897614881,3233.66845703125,1218.3150634765625
6197.898829674,3233.66845703125,1219.047607421875
6197.936642505,3229.0322265625,1219.7802734375
6197.937509037,3229.0322265625,1219.047607421875
6197.970439682,3229.0322265625,1218.3150634765625
6198.00513766,3229.0322265625,1217.5823974609375
6198.00630629,3229.0322265625,1217.5823974609375
6198.014015801,3224.409423828125,1218.3150634765625
6198.046408826,3229.0322265625,1221.245361328125
6198.07894859,3229.0322265625,1219.7802734375
6198.080124691,3224.409423828125,1218.3150634765625
6198.112770868,3224.409423828125,1221.97802734375
6198.113789444,3219.7998046875,1223.4432373046875
6198.146503649,3219.7998046875,1224.908447265625
6198.17900772,3219.7998046875,1225.6409912109375
6198.180130626,3219.7998046875,1226.3736572265625
6198.212831164,3215.203369140625,1226.3736572265625
6198.213800404,3219.7998046875,1230.03662109375
6198.246465005,3219.7998046875,1228.5714111328125
6198.29762495,3215.203369140625,1227.8388671875
6198.298786889,3215.203369140625,1230.769287109375
6198.300026708,3215.203369140625,1232.234375
6198.341433617,3215.203369140625,1232.967041015625
6198.342549288,3215.203369140625,1233.6995849609375
6198.375403587,3210.6201171875,1232.967041015625
6198.376571851,3215.203369140625,1232.234375
6198.409012274,3215.203369140625,1232.967041015625
6198.416355548,3210.6201171875,1233.6995849609375
6198.448990369,3215.203369140625,1232.234375
6198.48152174,3210.6201171875,1232.967041015625
6198.482713671,3210.6201171875,1231.5018310546875
6198.516500396,3201.492431640625,1231.5018310546875
6198.517564443,3210.6201171875,1235.164794921875
6198.550415498,3210.6201171875,1232.967041015625
6198.551408255,3210.6201171875,1231.5018310546875
6198.615142783,3206.0498046875,1231.5018310546875
6198.616476766,3210.6201171875,1235.164794921875
6198.617514007,3210.6201171875,1232.967041015625
6198.650257419,3206.0498046875,1232.234375
6198.651330871,3206.0498046875,1235.164794921875
6198.685170105,3206.0498046875,1236.6300048828125
6198.717948892,3201.492431640625,1237.3626708984375
6198.718919187,3201.492431640625,1238.09521484375
6198.751396216,3201.492431640625,1238.827880859375
6198.784145685,3201.492431640625,1239.5604248046875
6198.785087908,3201.492431640625,1238.827880859375
6198.817891959,3201.492431640625,1239.5604248046875
6198.818883321,3201.492431640625,1239.5604248046875
6198.851494205,3201.492431640625,1239.5604248046875
6198.852583259,3201.492431640625,1239.5604248046875
6198.896385473,3201.492431640625,1239.5604248046875
6198.897498605,3201.492431640625,1239.5604248046875
6198.930272965,3201.492431640625,1239.5604248046875
6198.962642606,3201.492431640625,1240.2930908203125
6198.963801265,3201.492431640625,1240.2930908203125
6198.996490671,3201.492431640625,1239.5604248046875
6198.997572879,3201.492431640625,1239.5604248046875
6199.030269254,3201.492431640625,1239.5604248046875
6199.036374707,3201.492431640625,1239.5604248046875
6199.069130622,3201.492431640625,1239.5604248046875
6199.101598495,3201.492431640625,1239.5604248046875
6199.102658207,3201.492431640625,1239.5604248046875
6199.135344221,3201.492431640625,1239.5604248046875
6199.136329901,3201.492431640625,1240.2930908203125
6199.209177587,3201.492431640625,1240.2930908203125
6199.210120985,3201.492431640625,1239.5604248046875
6199.211327181,3201.492431640625,1239.5604248046875
6199.226418823,3201.492431640625,1239.5604248046875
6199.25889953,3196.9482421875,1239.5604248046875
6199.260160285,3196.9482421875,1243.223388671875
6199.292709095,3196.9482421875,1244.6885986328125
6199.293875633,3201.492431640625,1245.4212646484375
6199.326419075,3201.492431640625,1241.75830078125
6199.358934164,3201.492431640625,1241.025634765625
6199.360237083,3201.492431640625,1240.2930908203125
6199.392714448,3201.492431640625,1239.5604248046875
6199.393893195,3196.9482421875,1240.2930908203125
6199.426597851,3201.492431640625,1243.223388671875
6199.458929806,3201.492431640625,1241.025634765625
6199.460210943,3201.492431640625,1240.2930908203125
6199.495098267,3201.492431640625,1240.2930908203125
6199.496434459,3201.492431640625,1239.5604248046875
6199.528939541,3196.9482421875,1239.5604248046875
6199.533919322,3201.492431640625,1243.223388671875
6199.566653414,3196.9482421875,1241.025634765625
6199.598931573,3196.9482421875,1243.9560546875
6199.605203122,3196.9482421875,1245.4212646484375
6199.637657579,3201.492431640625,1245.4212646484375
6199.638791903,3201.492431640625,1243.223388671875
6199.671523887,3196.9482421875,1241.025634765625
6199.672575055,3196.9482421875,1243.9560546875
6199.70519403,3196.9482421875,1245.4212646484375
6199.737710473,3196.9482421875,1245.4212646484375
6199.738819264,3196.9482421875,1246.15380859375
6199.806580058,3196.9482421875,1246.15380859375
6199.807819178,3201.492431640625,1246.886474609375
6199.808872482,3201.492431640625,1243.223388671875
6199.815351525,3196.9482421875,1241.75830078125
6199.856661983,3196.9482421875,1243.9560546875
6199.857612643,3196.9482421875,1245.4212646484375
6199.89019001,3196.9482421875,1246.15380859375
6199.896566696,3196.9482421875,1246.15380859375
6199.928906861,3196.9482421875,1246.15380859375
6199.930197293,3201.492431640625,1246.15380859375
6199.962895602,3196.9482421875,1242.4908447265625
6199.995362322,3196.9482421875,1244.6885986328125
6199.9967229,3196.9482421875,1245.4212646484375
6200.02899973,3196.9482421875,1246.15380859375
6200.036347949,3196.9482421875,1246.15380859375
6200.096518868,3196.9482421875,1246.886474609375
6200.097586437,3196.9482421875,1246.15380859375
6200.098807152,3196.9482421875,1246.15380859375
6200.131412341,3196.9482421875,1246.15380859375
6200.132612114,3196.9482421875,1246.886474609375
6200.165143264,3196.9482421875,1246.886474609375
6200.197897358,3192.416748046875,1246.15380859375
6200.198906702,3192.416748046875,1245.4212646484375
6200.231477419,3192.416748046875,1244.6885986328125
6200.236531964,3192.416748046875,1243.9560546875
6200.268983314,3196.9482421875,1244.6885986328125
6200.270067419,3192.416748046875,1245.4212646484375
6200.302859922,3196.9482421875,1244.6885986328125
6200.335311014,3192.416748046875,1246.15380859375
6200.336350015,3192.416748046875,1244.6885986328125
6200.405393313,3192.416748046875,1244.6885986328125
6200.406416173,3192.416748046875,1244.6885986328125
6200.407568449,3196.9482421875,1243.9560546875
6200.409235233,3192.416748046875,1245.4212646484375
6200.441790788,3192.416748046875,1244.6885986328125
6200.496372431,3192.416748046875,1243.9560546875
6200.497603149,3196.9482421875,1244.6885986328125
6200.499125116,3196.9482421875,1245.4212646484375
6200.531423296,3196.9482421875,1246.15380859375
6200.537910994,3192.416748046875,1246.15380859375
6200.570161229,3196.9482421875,1245.4212646484375
6200.571289693,3196.9482421875,1246.15380859375
6200.604166123,3192.416748046875,1246.15380859375
6200.636648182,3196.9482421875,1245.4212646484375
6200.637592353,3196.9482421875,1246.15380859375
6200.69780378,3192.416748046875,1246.15380859375
6200.698807551,3196.9482421875,1245.4212646484375
6200.700261768,3192.416748046875,1245.4212646484375
6200.732598393,3196.9482421875,1244.6885986328125
6200.733834543,3192.416748046875,1246.15380859375
6200.766637783,3196.9482421875,1244.6885986328125
6200.771563079,3192.416748046875,1245.4212646484375
6200.803915066,3196.9482421875,1244.6885986328125
6200.836376243,3192.416748046875,1246.15380859375
6200.837561746,3192.416748046875,1244.6885986328125
6200.870192969,3192.416748046875,1243.9560546875
6200.875250325,3192.416748046875,1243.9560546875
6200.907603513,3196.9482421875,1243.9560546875
6200.91535875,3196.9482421875,1245.4212646484375
6200.947744605,3192.416748046875,1246.15380859375
6200.953926798,3192.416748046875,1244.6885986328125
6201.002812234,3196.9482421875,1244.6885986328125
6201.004418849,3196.9482421875,1246.15380859375
6201.036616432,3196.9482421875,1246.15380859375
6201.037755173,3196.9482421875,1246.886474609375
6201.070330262,3192.416748046875,1246.15380859375
6201.071343061,3196.9482421875,1245.4212646484375
6201.104178882,3196.9482421875,1246.15380859375
6201.136709014,3196.9482421875,1246.15380859375
6201.137759871,3196.9482421875,1246.15380859375
6201.170416187,3196.9482421875,1246.15380859375
6201.177910421,3196.9482421875,1246.886474609375
6201.210163125,3196.9482421875,1246.886474609375
6201.21136009,3196.9482421875,1246.15380859375
6201.243913915,3196.9482421875,1246.886474609375
6201.29787385,3196.9482421875,1246.886474609375
6201.298913231,3196.9482421875,1246.886474609375
6201.300076824,3201.492431640625,1246.886474609375
6201.332665994,3201.492431640625,1242.4908447265625
6201.340144244,3201.492431640625,1241.75830078125
6201.372643534,3201.492431640625,1240.2930908203125
6201.373790668,3201.492431640625,1239.5604248046875
6201.406399291,3201.492431640625,1239.5604248046875
6201.411437837,3201.492431640625,1239.5604248046875
6201.44391264,3201.492431640625,1239.5604248046875
6201.4764478,3201.492431640625,1239.5604248046875
6201.477580593,3201.492431640625,1239.5604248046875
6201.510175397,3196.9482421875,1239.5604248046875
6201.515082882,3201.492431640625,1243.223388671875
6201.547819294,3201.492431640625,1241.025634765625
6201.548863264,3201.492431640625,1241.025634765625
6201.595167183,3201.492431640625,1240.2930908203125
6201.596356551,3196.9482421875,1240.2930908203125
6201.628930114,3196.9482421875,1243.223388671875
6201.630053172,3196.9482421875,1244.6885986328125
6201.662859521,3201.492431640625,1245.4212646484375
6201.695159548,3192.416748046875,1242.4908447265625
6201.69664914,3201.492431640625,1243.223388671875
6201.728868435,3196.9482421875,1241.025634765625
6201.730019183,3196.9482421875,1243.9560546875
6201.776628252,3196.9482421875,1245.4212646484375
6201.777556069,3201.492431640625,1246.15380859375
6201.810145701,3192.416748046875,1242.4908447265625
6201.811338975,3192.416748046875,1243.9560546875
6201.843959174,3196.9482421875,1243.223388671875
6201.850142316,3196.9482421875,1245.4212646484375
6201.897664672,3196.9482421875,1245.4212646484375
6201.898826765,3192.416748046875,1246.15380859375
6201.931469887,3192.416748046875,1245.4212646484375
6201.932576899,3192.416748046875,1244.6885986328125
6201.96530136,3192.416748046875,1244.6885986328125
6201.997637697,3192.416748046875,1244.6885986328125
6201.998885845,3192.416748046875,1243.9560546875
6202.031675728,3192.416748046875,1243.9560546875
6202.033017961,3192.416748046875,1244.6885986328125
6202.065451879,3192.416748046875,1243.9560546875
6202.097634485,3192.416748046875,1243.9560546875
6202.09915908,3192.416748046875,1243.9560546875
6202.131459048,3187.898193359375,1243.9560546875
6202.132691189,3192.416748046875,1247.6190185546875
6202.200163632,3192.416748046875,1245.4212646484375
6202.201358901,3187.898193359375,1244.6885986328125
6202.202604811,3187.898193359375,1248.3516845703125
6202.235210866,3187.898193359375,1249.81689453125
6202.236631205,3187.898193359375,1250.5494384765625
6202.268995388,3187.898193359375,1250.5494384765625
6202.270068094,3187.898193359375,1250.5494384765625
6202.30281521,3187.898193359375,1251.2821044921875
6202.330379908,3183.392333984375,1250.5494384765625
6202.331322676,3183.392333984375,1252.0146484375
6202.364168462,3183.392333984375,1252.0146484375
6202.416385226,3183.392333984375,1253.4798583984375
6202.41760576,3183.392333984375,1252.7471923828125
6202.418866926,3178.899169921875,1253.4798583984375
6202.451632379,3178.899169921875,1256.4102783203125
6202.501472076,3174.418701171875,1258.6080322265625
6202.502614677,3178.899169921875,1257.87548828125
6202.503769118,3174.418701171875,1259.3406982421875
6202.53650072,3174.418701171875,1258.6080322265625
6202.537552516,3174.418701171875,1257.142822265625
6202.570257941,3174.418701171875,1257.142822265625
6202.571508052,3169.95068359375,1257.142822265625
6202.603988504,3174.418701171875,1260.805908203125
6202.636531957,3169.95068359375,1259.3406982421875
6202.637514308,3169.95068359375,1261.5384521484375
6202.670354876,3165.495361328125,1263.003662109375
6202.671279929,3169.95068359375,1264.4688720703125
6202.70411462,3169.95068359375,1263.7362060546875
6202.736521037,3165.495361328125,1264.4688720703125
6202.737592543,3169.95068359375,1265.201416015625
6202.806687369,3169.95068359375,1264.4688720703125
6202.807675181,3165.495361328125,1263.7362060546875
6202.80887444,3165.495361328125,1264.4688720703125
6202.810183288,3165.495361328125,1265.93408203125
6202.842717898,3165.495361328125,1265.201416015625
6202.875264225,3165.495361328125,1265.93408203125
6202.876553169,3165.495361328125,1265.93408203125
6202.908989594,3161.052734375,1266.6666259765625
6202.914209163,3165.495361328125,1269.5970458984375
6202.946789215,3165.495361328125,1267.3992919921875
6202.979216766,3161.052734375,1267.3992919921875
6202.980280294,3156.622314453125,1270.3297119140625
6203.012727165,3161.052734375,1270.3297119140625
6203.013978422,3161.052734375,1271.794921875
6203.056559577,3161.052734375,1272.5274658203125
6203.057704603,3156.622314453125,1272.5274658203125
6203.097778347,3152.204345703125,1271.794921875
6203.099003337,3161.052734375,1273.99267578125
6203.13162458,3161.052734375,1273.2601318359375
6203.133083704,3156.622314453125,1273.2601318359375
6203.165304895,3156.622314453125,1271.794921875
6203.198737362,3156.622314453125,1271.062255859375
6203.198978768,3156.622314453125,1270.3297119140625
6203.231470848,3156.622314453125,1270.3297119140625
6203.232669773,3156.622314453125,1270.3297119140625
6203.265247455,3156.622314453125,1270.3297119140625
6203.297778896,3161.052734375,1270.3297119140625
6203.298953231,3156.622314453125,1271.794921875
6203.331648361,3156.622314453125,1271.062255859375
6203.332736201,3156.622314453125,1271.062255859375
6203.394094279,3156.622314453125,1270.3297119140625
6203.395298723,3156.622314453125,1271.062255859375
6203.396967175,3156.622314453125,1271.062255859375
6203.43049938,3156.622314453125,1270.3297119140625
6203.463028494,3161.052734375,1270.3297119140625
6203.464367326,3156.622314453125,1271.794921875
6203.496792392,3156.622314453125,1271.062255859375
6203.497750269,3161.052734375,1270.3297119140625
6203.530610401,3156.622314453125,1271.794921875
6203.531549736,3156.622314453125,1271.062255859375
6203.564123068,3156.622314453125,1271.062255859375
6203.596649306,3152.204345703125,1270.3297119140625
6203.597766346,3152.204345703125,1273.99267578125
6203.630542475,3156.622314453125,1275.4578857421875
6203.631569172,3156.622314453125,1273.2601318359375
6203.704015795,3156.622314453125,1271.062255859375
6203.705151328,3156.622314453125,1271.062255859375
6203.706483012,3156.622314453125,1271.062255859375
6203.72660617,3156.622314453125,1271.062255859375
6203.759140598,3156.622314453125,1270.3297119140625
6203.760590062,3156.622314453125,1270.3297119140625
6203.792893835,3156.622314453125,1271.062255859375
6203.79424103,3156.622314453125,1270.3297119140625
6203.826624629,3156.622314453125,1270.3297119140625
6203.833973393,3156.622314453125,1270.3297119140625
6203.866484691,3156.622314453125,1270.3297119140625
6203.874048642,3156.622314453125,1270.3297119140625
6203.90657045,3156.622314453125,1270.3297119140625
6203.939245824,3156.622314453125,1270.3297119140625
6203.940275248,3161.052734375,1270.3297119140625
6203.993003422,3161.052734375,1271.794921875
6203.994252635,3165.495361328125,1272.5274658203125
6203.995237914,3169.95068359375,1268.864501953125
6204.027837392,3169.95068359375,1266.6666259765625
6204.028966326,3169.95068359375,1264.4688720703125
6204.061604779,3169.95068359375,1264.4688720703125
6204.094276462,3165.495361328125,1264.4688720703125
6204.095601619,3169.95068359375,1265.201416015625
6204.127947231,3169.95068359375,1264.4688720703125
6204.128986691,3169.95068359375,1264.4688720703125
6204.161748124,3169.95068359375,1264.4688720703125
6204.194261264,3165.495361328125,1263.7362060546875
6204.195280035,3169.95068359375,1265.201416015625
6204.228011363,3169.95068359375,1264.4688720703125
6204.260511473,3169.95068359375,1264.4688720703125
6204.261525577,3169.95068359375,1263.7362060546875
6204.305520049,3165.495361328125,1264.4688720703125
6204.306846101,3165.495361328125,1265.201416015625
6204.336587354,3165.495361328125,1265.201416015625
6204.337924922,3169.95068359375,1265.93408203125
6204.370341127,3169.95068359375,1264.4688720703125
6204.371510789,3169.95068359375,1264.4688720703125
6204.404146731,3174.418701171875,1264.4688720703125
6204.405216993,3169.95068359375,1260.805908203125
6204.439067258,3174.418701171875,1262.2711181640625
6204.471547122,3169.95068359375,1259.3406982421875
6204.472642387,3169.95068359375,1261.5384521484375
6204.505413275,3174.418701171875,1263.003662109375
6204.512751895,3174.418701171875,1260.0732421875
6204.545274029,3174.418701171875,1258.6080322265625
6204.596597081,3169.95068359375,1258.6080322265625
6204.597657802,3174.418701171875,1261.5384521484375
6204.59930132,3169.95068359375,1259.3406982421875
6204.631541907,3169.95068359375,1262.2711181640625
6204.639058139,3174.418701171875,1263.003662109375
6204.67176719,3174.418701171875,1260.0732421875
6204.672732283,3178.899169921875,1258.6080322265625
6204.705516393,3174.418701171875,1259.3406982421875
6204.737858211,3178.899169921875,1258.6080322265625
6204.739217709,3178.899169921875,1258.6080322265625
6204.771668758,3183.392333984375,1259.3406982421875
6204.772716111,3178.899169921875,1255.6776123046875
6204.805540874,3183.392333984375,1257.87548828125
6204.812892765,3183.392333984375,1254.945068359375
6204.845226644,3187.898193359375,1253.4798583984375
6204.900286277,3187.898193359375,1252.7471923828125
6204.901409658,3183.392333984375,1252.0146484375
6204.902696824,3183.392333984375,1252.0146484375
6204.935482917,3183.392333984375,1252.7471923828125
6204.936506335,3183.392333984375,1252.7471923828125
6204.976726066,3183.392333984375,1253.4798583984375
6204.977751609,3183.392333984375,1253.4798583984375
6205.010259843,3183.392333984375,1252.7471923828125
6205.015230582,3183.392333984375,1252.7471923828125
6205.047794264,3187.898193359375,1252.7471923828125
6205.048990954,3187.898193359375,1252.0146484375
6205.082998687,3183.392333984375,1252.0146484375
6205.115507782,3187.898193359375,1252.0146484375
6205.116731102,3183.392333984375,1251.2821044921875
6205.149138578,3183.392333984375,1252.7471923828125
6205.154204952,3183.392333984375,1252.7471923828125
6205.200314248,3183.392333984375,1252.7471923828125
6205.201445598,3183.392333984375,1252.7471923828125
6205.234410416,3183.392333984375,1252.7471923828125
6205.235356231,3183.392333984375,1253.4798583984375
6205.26794139,3187.898193359375,1252.7471923828125
6205.269512756,3187.898193359375,1251.2821044921875
6205.301629312,3187.898193359375,1252.0146484375
6205.334128332,3187.898193359375,1251.2821044921875
6205.3356092,3187.898193359375,1251.2821044921875
6205.368008679,3187.898193359375,1251.2821044921875
6205.368980505,3192.416748046875,1250.5494384765625
6205.401780754,3192.416748046875,1247.6190185546875
6205.434246831,3192.416748046875,1246.15380859375
6205.43556822,3187.898193359375,1245.4212646484375
6205.497826921,3192.416748046875,1248.3516845703125
6205.498940992,3192.416748046875,1246.15380859375
6205.50049205,3192.416748046875,1245.4212646484375
6205.532887578,3192.416748046875,1244.6885986328125
6205.534004448,3187.898193359375,1244.6885986328125
6205.566809329,3192.416748046875,1247.6190185546875
6205.567801028,3192.416748046875,1246.15380859375
6205.616564424,3192.416748046875,1244.6885986328125
6205.617671854,3196.9482421875,1244.6885986328125
6205.650542507,3187.898193359375,1245.4212646484375
6205.651536826,3196.9482421875,1248.3516845703125
6205.684250688,3196.9482421875,1247.6190185546875
6205.685292968,3192.416748046875,1246.886474609375
6205.718034658,3196.9482421875,1245.4212646484375
6205.750278226,3192.416748046875,1246.15380859375
6205.751424326,3196.9482421875,1244.6885986328125
6205.79547619,3196.9482421875,1246.15380859375
6205.796454181,3196.9482421875,1246.15380859375
6205.830411592,3192.416748046875,1246.15380859375
6205.831464146,3196.9482421875,1244.6885986328125
6205.864285566,3196.9482421875,1245.4212646484375
6205.865200104,3196.9482421875,1246.15380859375
6205.897978486,3196.9482421875,1246.15380859375
6205.930631042,3196.9482421875,1246.15380859375
6205.93153311,3196.9482421875,1246.886474609375
6205.964193567,3196.9482421875,1246.886474609375
6205.996530797,3196.9482421875,1246.886474609375
6205.997796172,3201.492431640625,1246.886474609375
6206.030615391,3196.9482421875,1242.4908447265625
6206.031484499,3196.9482421875,1244.6885986328125
6206.099234229,3201.492431640625,1245.4212646484375
6206.100257816,3196.9482421875,1243.223388671875
6206.101452801,3196.9482421875,1244.6885986328125
6206.134054319,3192.416748046875,1245.4212646484375
6206.135322117,3201.492431640625,1244.6885986328125
6206.168099875,3196.9482421875,1241.75830078125
6206.169372763,3196.9482421875,1244.6885986328125
6206.201523195,3192.416748046875,1245.4212646484375
6206.256741066,3196.9482421875,1244.6885986328125
6206.257695569,3196.9482421875,1246.15380859375
6206.25898817,3196.9482421875,1246.15380859375
6206.291474843,3196.9482421875,1246.15380859375
6206.296522505,3201.492431640625,1246.15380859375
6206.329095691,3192.416748046875,1243.223388671875
6206.330552715,3196.9482421875,1243.223388671875
6206.356879918,3196.9482421875,1245.4212646484375
6206.395407139,3196.9482421875,1245.4212646484375
6206.396391169,3196.9482421875,1246.15380859375
6206.429258624,3196.9482421875,1246.15380859375
6206.430402708,3196.9482421875,1246.886474609375
6206.462788418,3196.9482421875,1246.15380859375
6206.495605794,3196.9482421875,1246.886474609375
6206.496525167,3196.9482421875,1246.886474609375
6206.529095178,3192.416748046875,1246.15380859375
6206.530336257,3196.9482421875,1245.4212646484375
6206.563020475,3196.9482421875,1245.4212646484375
6206.595408349,3196.9482421875,1246.15380859375
6206.596747852,3201.492431640625,1246.15380859375
6206.629266925,3196.9482421875,1242.4908447265625
6206.630602052,3196.9482421875,1244.6885986328125
6206.703015107,3196.9482421875,1246.15380859375
6206.704330779,3196.9482421875,1246.15380859375
6206.705639444,3196.9482421875,1246.15380859375
6206.710502848,3192.416748046875,1246.15380859375
6206.742786988,3196.9482421875,1245.4212646484375
6206.775408606,3196.9482421875,1246.15380859375
6206.77641712,3192.416748046875,1246.15380859375
6206.809172912,3192.416748046875,1244.6885986328125
6206.81028022,3196.9482421875,1244.6885986328125
6206.842808205,3187.898193359375,1245.4212646484375
6206.849032874,3192.416748046875,1248.3516845703125
6206.896716603,3196.9482421875,1246.15380859375
6206.897818564,3192.416748046875,1246.886474609375
6206.930573705,3192.416748046875,1245.4212646484375
6206.931562125,3192.416748046875,1244.6885986328125
6207.000520459,3192.416748046875,1244.6885986328125
6207.001445382,3192.416748046875,1243.9560546875
6207.002807289,3196.9482421875,1243.9560546875
6207.035374615,3192.416748046875,1245.4212646484375
6207.036483922,3196.9482421875,1243.9560546875
6207.069106141,3192.416748046875,1245.4212646484375
6207.070315494,3192.416748046875,1245.4212646484375
6207.102844976,3196.9482421875,1244.6885986328125
6207.135368819,3192.416748046875,1245.4212646484375
6207.136502189,3192.416748046875,1244.6885986328125
6207.169018645,3192.416748046875,1243.9560546875
6207.17028482,3192.416748046875,1244.6885986328125
6207.20281486,3192.416748046875,1243.9560546875
6207.235445793,3187.898193359375,1243.9560546875
6207.236419165,3187.898193359375,1247.6190185546875
6207.30294599,3187.898193359375,1249.81689453125
6207.304043464,3187.898193359375,1250.5494384765625
6207.305525693,3187.898193359375,1251.2821044921875
6207.306676305,3187.898193359375,1251.2821044921875
6207.339072574,3187.898193359375,1250.5494384765625
6207.371566997,3187.898193359375,1250.5494384765625
6207.372746571,3187.898193359375,1251.2821044921875
6207.40543542,3187.898193359375,1251.2821044921875
6207.41296557,3187.898193359375,1251.2821044921875
6207.445366782,3187.898193359375,1251.2821044921875
6207.446503858,3183.392333984375,1251.2821044921875
6207.479159223,3183.392333984375,1252.7471923828125
6207.536585418,3183.392333984375,1252.7471923828125
6207.538243468,3187.898193359375,1252.7471923828125
6207.539109624,3187.898193359375,1252.0146484375
6207.596633022,3178.899169921875,1251.2821044921875
6207.597862349,3178.899169921875,1255.6776123046875
6207.599012737,3183.392333984375,1257.87548828125
6207.631645347,3178.899169921875,1254.945068359375
6207.632817456,3178.899169921875,1257.87548828125
6207.665624787,3178.899169921875,1258.6080322265625
6207.666636873,3178.899169921875,1259.3406982421875
6207.699207299,3178.899169921875,1259.3406982421875
6207.731871505,3178.899169921875,1260.0732421875
6207.732917741,3183.392333984375,1260.0732421875
6207.765389929,3178.899169921875,1256.4102783203125
6207.773055234,3178.899169921875,1258.6080322265625
6207.805458076,3183.392333984375,1259.3406982421875
6207.806795761,3183.392333984375,1255.6776123046875
6207.839200829,3178.899169921875,1254.21240234375
6207.901855976,3174.418701171875,1257.142822265625
6207.902872576,3178.899169921875,1257.142822265625
6207.90401899,3178.899169921875,1258.6080322265625
6207.936692446,3178.899169921875,1259.3406982421875
6207.937934453,3178.899169921875,1259.3406982421875
6207.970362252,3174.418701171875,1259.3406982421875
6207.971543889,3174.418701171875,1258.6080322265625
6208.004104738,3174.418701171875,1257.87548828125
6208.010372788,3178.899169921875,1257.87548828125
6208.042921783,3178.899169921875,1258.6080322265625
6208.075464738,3174.418701171875,1259.3406982421875
6208.076570358,3178.899169921875,1257.87548828125
6208.109368269,3174.418701171875,1258.6080322265625
6208.1104207,3174.418701171875,1257.87548828125
6208.143105309,3174.418701171875,1257.87548828125
6208.214150201,3174.418701171875,1257.142822265625
6208.215323729,3169.95068359375,1257.87548828125
6208.216530618,3169.95068359375,1260.805908203125
6208.2177743,3169.95068359375,1262.2711181640625
6208.250416676,3165.495361328125,1263.7362060546875
6208.251526962,3174.418701171875,1264.4688720703125
6208.284303136,3174.418701171875,1260.805908203125
6208.285296082,3174.418701171875,1259.3406982421875
6208.318356863,3174.418701171875,1257.87548828125
6208.351699398,3165.495361328125,1257.87548828125
6208.352787946,3169.95068359375,1262.2711181640625
6208.385619651,3169.95068359375,1263.003662109375
6208.392851819,3169.95068359375,1263.7362060546875
6208.425451687,3169.95068359375,1263.7362060546875
6208.426532379,3169.95068359375,1264.4688720703125
6208.459133105,3169.95068359375,1264.4688720703125
6208.498140025,3165.495361328125,1263.7362060546875
6208.499163965,3165.495361328125,1265.201416015625
6208.531901115,3165.495361328125,1265.93408203125
6208.532915,3165.495361328125,1265.93408203125
6208.565629357,3165.495361328125,1265.93408203125
6208.566667302,3165.495361328125,1265.93408203125
6208.59942924,3165.495361328125,1265.93408203125
6208.631854072,3161.052734375,1265.93408203125
6208.632882871,3161.052734375,1269.5970458984375
6208.665640305,3161.052734375,1271.062255859375
6208.671634121,3165.495361328125,1271.794921875
6208.704180544,3165.495361328125,1268.864501953125
6208.736644053,3161.052734375,1267.3992919921875
6208.737861705,3165.495361328125,1270.3297119140625
6208.810603433,3156.622314453125,1268.1318359375
6208.811622541,3161.052734375,1268.864501953125
6208.812823535,3161.052734375,1271.062255859375
6208.833117076,3161.052734375,1271.794921875
6208.834148753,3161.052734375,1272.5274658203125
6208.866836292,3156.622314453125,1272.5274658203125
6208.872888919,3161.052734375,1271.062255859375
6208.905398065,3161.052734375,1271.794921875
6208.906533073,3161.052734375,1273.2601318359375
6208.939177074,3156.622314453125,1272.5274658203125
6208.971654239,3156.622314453125,1271.062255859375
6208.972863968,3156.622314453125,1271.062255859375
6209.005369321,3156.622314453125,1270.3297119140625
6209.010397796,3156.622314453125,1270.3297119140625
6209.043125807,3156.622314453125,1271.062255859375
6209.044450578,3156.622314453125,1270.3297119140625
6209.096881427,3156.622314453125,1270.3297119140625
6209.097820246,3156.622314453125,1270.3297119140625
6209.13061025,3156.622314453125,1270.3297119140625
6209.131616856,3156.622314453125,1270.3297119140625
6209.164250652,3156.622314453125,1270.3297119140625
6209.196984655,3156.622314453125,1270.3297119140625
6209.197898062,3156.622314453125,1270.3297119140625
6209.230649436,3156.622314453125,1270.3297119140625
6209.231673442,3156.622314453125,1270.3297119140625
6209.26441833,3152.204345703125,1270.3297119140625
6209.265716154,3161.052734375,1273.99267578125
6209.29803609,3156.622314453125,1273.2601318359375
6209.330621077,3152.204345703125,1271.794921875
6209.331678734,3156.622314453125,1274.7252197265625
6209.398170685,3152.204345703125,1273.2601318359375
6209.399463293,3152.204345703125,1275.4578857421875
6209.400335678,3152.204345703125,1276.1904296875
6209.456855585,3152.204345703125,1276.923095703125
6209.458187271,3152.204345703125,1276.923095703125
6209.459152104,3147.798828125,1276.923095703125
6209.491860631,3152.204345703125,1278.3883056640625
6209.492882402,3152.204345703125,1277.6556396484375
6209.525618943,3152.204345703125,1277.6556396484375
6209.530683292,3152.204345703125,1276.923095703125
6209.562914378,3152.204345703125,1276.923095703125
6209.567894037,3152.204345703125,1276.923095703125
6209.600399562,3152.204345703125,1277.6556396484375
6209.632982885,3152.204345703125,1276.923095703125
6209.634085329,3152.204345703125,1277.6556396484375
6209.696712655,3152.204345703125,1276.923095703125
6209.697830578,3152.204345703125,1277.6556396484375
6209.699113258,3152.204345703125,1277.6556396484375
6209.7317615,3152.204345703125,1276.923095703125
6209.732804824,3156.622314453125,1277.6556396484375
6209.765390673,3152.204345703125,1273.99267578125
6209.766604545,3152.204345703125,1276.1904296875
6209.799394269,3156.622314453125,1276.923095703125
6209.831756074,3152.204345703125,1273.2601318359375
6209.832850983,3152.204345703125,1275.4578857421875
6209.865532046,3156.622314453125,1276.1904296875
6209.86662926,3156.622314453125,1273.2601318359375
6209.899169284,3156.622314453125,1271.794921875
6209.931925464,3152.204345703125,1271.062255859375
6209.93284633,3152.204345703125,1274.7252197265625
6209.965666439,3152.204345703125,1276.1904296875
6209.97314898,3152.204345703125,1276.923095703125
6210.018179657,3147.798828125,1276.923095703125
6210.019054524,3152.204345703125,1278.3883056640625
6210.05172245,3143.405517578125,1277.6556396484375
6210.052814918,3152.204345703125,1282.05126953125
6210.096860794,3147.798828125,1279.120849609375
6210.097837601,3152.204345703125,1279.853515625
6210.130625472,3147.798828125,1278.3883056640625
6210.131651626,3147.798828125,1279.120849609375
6210.164399607,3152.204345703125,1279.120849609375
6210.165478984,3152.204345703125,1278.3883056640625
6210.197933677,3152.204345703125,1277.6556396484375
6210.230632031,3147.798828125,1277.6556396484375
6210.23160512,3152.204345703125,1278.3883056640625
6210.296769711,3152.204345703125,1277.6556396484375
6210.297870363,3152.204345703125,1277.6556396484375
6210.299044522,3152.204345703125,1276.923095703125
6210.33184108,3147.798828125,1276.923095703125
6210.333219987,3156.622314453125,1278.3883056640625
6210.365660412,3147.798828125,1273.99267578125
6210.36671279,3152.204345703125,1276.923095703125
6210.387904885,3152.204345703125,1276.923095703125
6210.420495198,3152.204345703125,1276.923095703125
6210.453103327,3152.204345703125,1276.923095703125
6210.454157747,3152.204345703125,1276.923095703125
6210.486872122,3147.798828125,1276.923095703125
6210.487846412,3152.204345703125,1278.3883056640625
6210.520626667,3152.204345703125,1277.6556396484375
6210.525620382,3156.622314453125,1277.6556396484375
6210.557942007,3152.204345703125,1273.99267578125
6210.604097803,3147.798828125,1275.4578857421875
6210.605313499,3152.204345703125,1277.6556396484375
6210.606569249,3152.204345703125,1277.6556396484375
6210.639176909,3152.204345703125,1277.6556396484375
6210.671894265,3152.204345703125,1276.923095703125
6210.673241226,3152.204345703125,1276.923095703125
6210.705459565,3152.204345703125,1277.6556396484375
6210.706540769,3152.204345703125,1277.6556396484375
6210.736706403,3152.204345703125,1277.6556396484375
6210.769348806,3152.204345703125,1276.923095703125
6210.770505289,3152.204345703125,1276.923095703125
6210.804143133,3156.622314453125,1276.923095703125
6210.805338872,3156.622314453125,1273.2601318359375
6210.837938623,3156.622314453125,1271.794921875
6210.896647562,3152.204345703125,1271.062255859375
6210.89785508,3156.622314453125,1274.7252197265625
6210.899087707,3156.622314453125,1271.794921875
6210.931750207,3152.204345703125,1271.794921875
6210.932845897,3156.622314453125,1274.7252197265625
6210.965486058,3152.204345703125,1271.794921875
6210.997925486,3152.204345703125,1275.4578857421875
6210.999209047,3152.204345703125,1276.1904296875
6211.031693149,3152.204345703125,1276.923095703125
6211.032785016,3152.204345703125,1276.923095703125
6211.06557299,3152.204345703125,1276.923095703125
6211.066598336,3152.204345703125,1276.923095703125
6211.099153246,3152.204345703125,1277.6556396484375
6211.132909546,3152.204345703125,1277.6556396484375
6211.13407135,3152.204345703125,1277.6556396484375
6211.196896287,3152.204345703125,1276.923095703125
6211.197928064,3152.204345703125,1276.923095703125
6211.199450002,3152.204345703125,1277.6556396484375
6211.231875887,3152.204345703125,1276.923095703125
6211.232886089,3156.622314453125,1277.6556396484375
6211.265386497,3152.204345703125,1273.2601318359375
6211.270460112,3156.622314453125,1275.4578857421875
6211.302873709,3156.622314453125,1272.5274658203125
6211.304159752,3156.622314453125,1271.794921875
6211.336847304,3156.622314453125,1271.062255859375
6211.376952021,3156.622314453125,1271.062255859375
6211.377809904,3156.622314453125,1270.3297119140625
6211.410773447,3152.204345703125,1270.3297119140625
6211.411631095,3156.622314453125,1273.99267578125
6211.444373704,3152.204345703125,1271.794921875
6211.445635531,3156.622314453125,1274.7252197265625
6211.501662344,3161.052734375,1272.5274658203125
6211.502777324,3156.622314453125,1272.5274658203125
6211.509299953,3156.622314453125,1271.794921875
6211.54164656,3156.622314453125,1271.062255859375
6211.574331505,3156.622314453125,1271.062255859375
6211.575394296,3156.622314453125,1270.3297119140625
6211.607928431,3156.622314453125,1270.3297119140625
6211.609465381,3156.622314453125,1270.3297119140625
6211.641721611,3161.052734375,1270.3297119140625
6211.642821398,3156.622314453125,1271.794921875
6211.675672125,3156.622314453125,1271.062255859375
6211.707954174,3156.622314453125,1270.3297119140625
6211.70909651,3156.622314453125,1271.062255859375
6211.741807338,3156.622314453125,1270.3297119140625
6211.803123188,3156.622314453125,1270.3297119140625
6211.804112063,3156.622314453125,1271.062255859375
6211.805290278,3161.052734375,1270.3297119140625
6211.80655548,3156.622314453125,1271.794921875
6211.839115087,3161.052734375,1271.062255859375
6211.871691536,3161.052734375,1272.5274658203125
6211.872884988,3161.052734375,1273.2601318359375
6211.905362257,3156.622314453125,1273.2601318359375
6211.913148049,3156.622314453125,1271.062255859375
6211.945451738,3156.622314453125,1271.062255859375
6211.946634747,3161.052734375,1271.062255859375
6211.979203719,3161.052734375,1271.794921875
6212.016649957,3161.052734375,1272.5274658203125
6212.01779022,3161.052734375,1272.5274658203125
6212.050645802,3161.052734375,1272.5274658203125
6212.051950551,3161.052734375,1273.2601318359375
6212.101874983,3156.622314453125,1273.2601318359375
6212.102911306,3161.052734375,1271.794921875
6212.10441318,3161.052734375,1271.794921875
6212.136806674,3161.052734375,1272.5274658203125
6212.169142201,3156.622314453125,1272.5274658203125
6212.170338708,3161.052734375,1271.794921875
6212.203223901,3156.622314453125,1272.5274658203125
6212.210619638,3161.052734375,1271.062255859375
6212.243139279,3161.052734375,1271.794921875
6212.244095388,3161.052734375,1272.5274658203125
6212.276782712,3161.052734375,1272.5274658203125
6212.309533565,3152.204345703125,1272.5274658203125
6212.310323416,3161.052734375,1274.7252197265625
6212.343180319,3161.052734375,1273.99267578125
6212.348404737,3156.622314453125,1273.99267578125
6212.396625356,3161.052734375,1271.794921875
6212.398224279,3161.052734375,1272.5274658203125
6212.430612105,3156.622314453125,1272.5274658203125
6212.431610057,3156.622314453125,1271.794921875
6212.464297722,3156.622314453125,1270.3297119140625
6212.465336289,3156.622314453125,1271.062255859375
6212.498325689,3161.052734375,1270.3297119140625
6212.530534788,3161.052734375,1271.794921875
6212.531523246,3156.622314453125,1272.5274658203125
6212.564332718,3152.204345703125,1271.062255859375
6212.565351023,3156.622314453125,1274.7252197265625
6212.59804344,3161.052734375,1271.794921875
6212.630601398,3156.622314453125,1272.5274658203125
6212.631622086,3156.622314453125,1271.794921875
6212.658067138,3156.622314453125,1271.062255859375
6212.693202071,3156.622314453125,1270.3297119140625
6212.6942854,3156.622314453125,1271.062255859375
6212.727037205,3152.204345703125,1270.3297119140625
6212.728082268,3156.622314453125,1273.99267578125
6212.760844267,3156.622314453125,1272.5274658203125
6212.761748266,3156.622314453125,1271.062255859375
6212.794269357,3156.622314453125,1270.3297119140625
6212.827061475,3152.204345703125,1271.062255859375
6212.828023957,3156.622314453125,1273.99267578125
6212.860549943,3156.622314453125,1272.5274658203125
6212.893311779,3156.622314453125,1271.794921875
6212.894214835,3156.622314453125,1271.062255859375
6212.926829519,3152.204345703125,1270.3297119140625
6212.92805518,3156.622314453125,1274.7252197265625
6212.960576219,3156.622314453125,1272.5274658203125
6212.998101597,3156.622314453125,1271.794921875
6212.99931548,3156.622314453125,1271.062255859375
6213.031991307,3156.622314453125,1270.3297119140625
6213.032970167,3152.204345703125,1270.3297119140625
6213.065511376,3152.204345703125,1273.99267578125
6213.066668147,3156.622314453125,1275.4578857421875
6213.099312515,3156.622314453125,1272.5274658203125
6213.106944207,3156.622314453125,1271.794921875
6213.139286649,3156.622314453125,1271.062255859375
6213.171996949,3156.622314453125,1271.062255859375
6213.173054966,3156.622314453125,1270.3297119140625
6213.205567453,3156.622314453125,1271.062255859375
6213.206705422,3156.622314453125,1270.3297119140625
6213.23977068,3156.622314453125,1270.3297119140625
6213.244228409,3152.204345703125,1270.3297119140625
6213.316814339,3156.622314453125,1273.99267578125
6213.317954289,3156.622314453125,1271.794921875
6213.319137254,3156.622314453125,1271.062255859375
6213.330636542,3152.204345703125,1271.062255859375
6213.363088919,3156.622314453125,1273.99267578125
6213.368266416,3152.204345703125,1272.5274658203125
6213.400787404,3152.204345703125,1274.7252197265625
6213.405767409,3156.622314453125,1275.4578857421875
6213.438170829,3156.622314453125,1273.2601318359375
6213.470750145,3156.622314453125,1271.794921875
6213.471737113,3156.622314453125,1271.062255859375
6213.504397602,3152.204345703125,1271.062255859375
6213.511774323,3156.622314453125,1274.7252197265625
6213.544251181,3152.204345703125,1271.794921875
6213.545414194,3156.622314453125,1274.7252197265625
6213.594254041,3156.622314453125,1272.5274658203125
6213.595369374,3156.622314453125,1271.062255859375
6213.628279239,3147.798828125,1271.794921875
6213.629266705,3152.204345703125,1275.4578857421875
6213.661812053,3152.204345703125,1276.1904296875
6213.694278782,3152.204345703125,1276.923095703125
6213.695510573,3152.204345703125,1276.923095703125
6213.728012372,3152.204345703125,1276.923095703125
6213.729211902,3156.622314453125,1277.6556396484375
6213.761794636,3152.204345703125,1273.99267578125
6213.766781634,3152.204345703125,1276.1904296875
6213.799218253,3156.622314453125,1276.1904296875
6213.831965192,3152.204345703125,1273.2601318359375
6213.832997118,3152.204345703125,1275.4578857421875
6213.904345423,3152.204345703125,1276.1904296875
6213.905522178,3152.204345703125,1276.923095703125
6213.906618535,3152.204345703125,1276.923095703125
6213.9079106,3152.204345703125,1276.923095703125
6213.936836385,3156.622314453125,1276.923095703125
6213.969495848,3152.204345703125,1273.99267578125
6213.97053126,3152.204345703125,1275.4578857421875
6214.003254815,3152.204345703125,1276.1904296875
6214.004292214,3156.622314453125,1276.923095703125
6214.037004348,3152.204345703125,1273.99267578125
6214.069331344,3152.204345703125,1275.4578857421875
6214.070475869,3152.204345703125,1276.1904296875
6214.10324748,3152.204345703125,1276.923095703125
6214.135652055,3156.622314453125,1276.923095703125
6214.136743973,3156.622314453125,1273.99267578125
6214.196865007,3152.204345703125,1271.794921875
6214.198064257,3156.622314453125,1274.7252197265625
6214.199148154,3156.622314453125,1272.5274658203125
6214.23192196,3156.622314453125,1271.794921875
6214.232975384,3156.622314453125,1271.062255859375
6214.265519276,3156.622314453125,1270.3297119140625
6214.26704623,3156.622314453125,1271.062255859375
6214.29939154,3156.622314453125,1271.062255859375
6214.331743291,3156.622314453125,1271.062255859375
6214.33295594,3156.622314453125,1270.3297119140625
6214.36553899,3152.204345703125,1270.3297119140625
6214.366694256,3156.622314453125,1273.99267578125
6214.399627784,3156.622314453125,1271.794921875
6214.40811263,3152.204345703125,1271.062255859375
6214.44074169,3156.622314453125,1274.7252197265625
6214.447982412,3156.622314453125,1272.5274658203125
6214.501963275,3152.204345703125,1271.062255859375
6214.502928603,3147.798828125,1273.99267578125
6214.504399488,3156.622314453125,1276.923095703125
6214.536800451,3156.622314453125,1273.2601318359375
6214.576768113,3156.622314453125,1272.5274658203125
6214.577933085,3152.204345703125,1271.062255859375
6214.610528294,3152.204345703125,1273.99267578125
6214.611647398,3152.204345703125,1275.4578857421875
6214.644321553,3152.204345703125,1276.1904296875
6214.645468023,3152.204345703125,1276.923095703125
6214.678335884,3152.204345703125,1277.6556396484375
6214.685654061,3147.798828125,1277.6556396484375
6214.718260994,3152.204345703125,1278.3883056640625
6214.750734961,3152.204345703125,1277.6556396484375
6214.756776933,3147.798828125,1277.6556396484375
6214.796797496,3147.798828125,1277.6556396484375
6214.798345926,3152.204345703125,1279.120849609375
6214.803154867,3147.798828125,1278.3883056640625
6214.836828803,3152.204345703125,1278.3883056640625
6214.869474187,3147.798828125,1277.6556396484375
6214.870565825,3152.204345703125,1279.120849609375
6214.903191835,3147.798828125,1277.6556396484375
6214.908189133,3152.204345703125,1278.3883056640625
6214.940540021,3147.798828125,1277.6556396484375
6214.973103373,3147.798828125,1278.3883056640625
6214.974298206,3147.798828125,1279.120849609375
6215.006803238,3147.798828125,1279.120849609375
6215.00796233,3152.204345703125,1279.120849609375
6215.040507224,3147.798828125,1277.6556396484375
6215.045597534,3147.798828125,1279.120849609375
6215.099810982,3147.798828125,1279.120849609375
6215.100467452,3147.798828125,1279.120849609375
6215.133152207,3147.798828125,1279.120849609375
6215.134255443,3147.798828125,1279.120849609375
6215.167063652,3147.798828125,1279.853515625
6215.168397485,3147.798828125,1279.120849609375
6215.21684204,3147.798828125,1279.120849609375
6215.217995996,3143.405517578125,1279.120849609375
6215.250905367,3143.405517578125,1282.783935546875
6215.25185711,3147.798828125,1284.2490234375
6215.284365236,3143.405517578125,1281.3187255859375
6215.285477588,3147.798828125,1284.2490234375
6215.318235461,3143.405517578125,1281.3187255859375
6215.35075125,3139.0244140625,1284.2490234375
6215.351782414,3143.405517578125,1283.5164794921875
6215.396956111,3139.0244140625,1284.981689453125
6215.398030788,3143.405517578125,1284.2490234375
6215.430655443,3143.405517578125,1284.981689453125
6215.432112302,3143.405517578125,1285.7142333984375
6215.464232483,3143.405517578125,1285.7142333984375
6215.465778303,3139.0244140625,1285.7142333984375
6215.498039486,3143.405517578125,1284.2490234375
6215.505734645,3143.405517578125,1285.7142333984375
6215.538085108,3143.405517578125,1285.7142333984375
6215.570822459,3143.405517578125,1285.7142333984375
6215.571758204,3143.405517578125,1286.4468994140625
6215.60479902,3143.405517578125,1285.7142333984375
6215.605527706,3143.405517578125,1285.7142333984375
6215.638270692,3143.405517578125,1285.7142333984375
6215.699605466,3143.405517578125,1285.7142333984375
6215.700428792,3139.0244140625,1285.7142333984375
6215.702120798,3143.405517578125,1284.981689453125
6215.708066739,3143.405517578125,1285.7142333984375
6215.741091367,3139.0244140625,1285.7142333984375
6215.773055726,3139.0244140625,1284.981689453125
6215.774253541,3139.0244140625,1284.981689453125
6215.807059009,3139.0244140625,1284.2490234375
6215.80797057,3139.0244140625,1284.2490234375
6215.856805432,3139.0244140625,1284.2490234375
6215.857960211,3139.0244140625,1283.5164794921875
6215.890754195,3143.405517578125,1284.2490234375
6215.891719094,3143.405517578125,1285.7142333984375
6215.924531055,3152.204345703125,1286.4468994140625
6215.92547843,3156.622314453125,1281.3187255859375
6215.958165365,3165.495361328125,1275.4578857421875
6215.994496634,3169.95068359375,1271.062255859375
6215.99582292,3174.418701171875,1267.3992919921875
6216.028274688,3183.392333984375,1262.2711181640625
6216.029687989,3183.392333984375,1257.87548828125
6216.06176952,3183.392333984375,1254.945068359375
6216.066892337,3183.392333984375,1253.4798583984375
6216.099401805,3187.898193359375,1253.4798583984375
6216.100496836,3183.392333984375,1252.0146484375
6216.133176844,3183.392333984375,1252.7471923828125
6216.165650221,3178.899169921875,1252.7471923828125
6216.166960016,3174.418701171875,1257.142822265625
6216.199634853,3169.95068359375,1257.142822265625
6216.231836874,3169.95068359375,1260.0732421875
6216.233244697,3165.495361328125,1262.2711181640625
6216.297984601,3161.052734375,1263.7362060546875
6216.299265624,3156.622314453125,1268.864501953125
6216.300694751,3156.622314453125,1269.5970458984375
6216.306900221,3156.622314453125,1270.3297119140625
6216.339403971,3152.204345703125,1270.3297119140625
6216.347029567,3152.204345703125,1273.99267578125
6216.379478199,3147.798828125,1275.4578857421875
6216.412007974,3143.405517578125,1277.6556396484375
6216.412937168,3143.405517578125,1282.05126953125
6216.445560336,3139.0244140625,1284.2490234375
6216.446786359,3139.0244140625,1283.5164794921875
6216.496792611,3139.0244140625,1283.5164794921875
6216.497956302,3134.655517578125,1283.5164794921875
6216.530505527,3134.655517578125,1287.179443359375
6216.531655094,3134.655517578125,1289.3773193359375
6216.595755685,3130.298828125,1290.10986328125
6216.596740921,3125.9541015625,1291.5750732421875
6216.597982168,3130.298828125,1295.970703125
6216.605812995,3130.298828125,1293.77294921875
6216.637992866,3130.298828125,1293.040283203125
6216.643221101,3130.298828125,1293.040283203125
6216.676983278,3134.655517578125,1292.3077392578125
6216.709690067,3130.298828125,1291.5750732421875
6216.710875034,3125.9541015625,1292.3077392578125
6216.743114719,3108.695556640625,1295.970703125
6216.744313521,3108.695556640625,1304.761962890625
6216.777036545,3108.695556640625,1308.4249267578125
6216.809553307,3104.41064453125,1310.6226806640625
6216.810849782,3104.41064453125,1152.3809814453125
6216.843227618,3100.1376953125,1077.6556396484375
6216.84970215,3104.41064453125,1045.4212646484375
6216.906803972,3100.1376953125,1026.3736572265625
6216.907968467,3104.41064453125,1020.5128173828125
6216.909361464,3095.876220703125,1014.6520385742188
6216.941763592,3104.41064453125,1015.3846435546875
6216.942942376,3104.41064453125,1012.4542236328125
6216.975582352,3108.695556640625,1010.989013671875
6217.008024605,3108.695556640625,1170.6959228515625
6217.009339057,3108.695556640625,1244.6885986328125
6217.041737596,3112.992431640625,1279.853515625
6217.042911316,3112.992431640625,1293.040283203125
6217.075728427,3112.992431640625,1300.3663330078125
6217.108248079,3112.992431640625,1303.2967529296875
6217.109752399,3112.992431640625,1305.4945068359375
6217.136782569,3117.301025390625,1305.4945068359375
6217.196925716,3125.9541015625,1304.761962890625
6217.198026874,3143.405517578125,1302.5640869140625
6217.19941337,3161.052734375,1293.040283203125
6217.20113775,3183.392333984375,1282.783935546875
6217.233584598,3201.492431640625,1266.6666259765625
6217.265963605,3206.0498046875,1252.7471923828125
6217.267014288,3224.409423828125,1244.6885986328125
6217.299453102,3242.98046875,1233.6995849609375
6217.331865563,3252.3466796875,1221.97802734375
6217.333010067,3266.49755859375,1217.5823974609375
6217.365967357,3271.241943359375,1206.5933837890625
6217.366904266,3271.241943359375,1203.6629638671875
6217.399680844,3280.77197265625,1202.19775390625
6217.400524732,3280.77197265625,1196.3370361328125
6217.43319639,3285.55810546875,1193.4066162109375
6217.505941953,3295.171875,1189.010986328125
6217.506962801,3295.171875,1184.6153564453125
6217.507963183,3290.35791015625,1182.4176025390625
6217.514588946,3290.35791015625,1185.3480224609375
6217.547224738,3290.35791015625,1186.08056640625
6217.548089172,3295.171875,1186.813232421875
6217.580772802,3295.171875,1183.8828125
6217.585622466,3314.569580078125,1181.6849365234375
6217.618264963,3334.19677734375,1175.091552734375
6217.650623266,3314.569580078125,1164.1025390625
6217.651767185,3290.35791015625,1167.032958984375
6217.684679629,3280.77197265625,1177.2894287109375
6217.685478431,3276.0,1184.6153564453125
6217.718273268,3266.49755859375,1189.7435302734375
6217.719423065,3247.65673828125,1193.4066162109375
6217.790900016,3238.31787109375,1198.5347900390625
6217.792305919,3229.0322265625,1206.5933837890625
6217.793506077,3224.409423828125,1212.4542236328125
6217.815863324,3224.409423828125,1218.3150634765625
6217.848139596,3219.7998046875,1221.97802734375
6217.849415284,3219.7998046875,1224.17578125
6217.881988577,3215.203369140625,1225.6409912109375
6217.884404665,3206.0498046875,1230.03662109375
6217.918424973,3224.409423828125,1233.6995849609375
6217.927126533,3229.0322265625,1229.3040771484375
6217.959616737,3229.0322265625,1223.4432373046875
6217.991916198,3210.6201171875,1219.7802734375
6217.993032971,3219.7998046875,1225.6409912109375
6218.025776261,3233.66845703125,1225.6409912109375
6218.026914032,3247.65673828125,1222.7105712890625
6218.059500608,3252.3466796875,1213.186767578125
6218.060612798,3252.3466796875,1213.186767578125
6218.096896307,3247.65673828125,1212.4542236328125
6218.129662774,3233.66845703125,1208.05859375
6218.133147867,3233.66845703125,1214.6519775390625
6218.166003439,3224.409423828125,1217.5823974609375
6218.166845131,3233.66845703125,1221.245361328125
6218.200650068,3229.0322265625,1221.245361328125
6218.203165421,3242.98046875,1219.7802734375
6218.235620817,3247.65673828125,1215.3846435546875
6218.268376341,3242.98046875,1209.5238037109375
6218.269463502,3238.31787109375,1210.2564697265625
6218.301861792,3238.31787109375,1212.4542236328125
6218.309397115,3247.65673828125,1213.186767578125
6218.341844932,3242.98046875,1208.791259765625
6218.343022473,3242.98046875,1210.2564697265625
6218.415627637,3247.65673828125,1210.989013671875
6218.41677284,3252.3466796875,1208.05859375
6218.418113249,3252.3466796875,1210.2564697265625
6218.443123819,3252.3466796875,1210.989013671875
6218.444327889,3252.3466796875,1211.7215576171875
6218.489420303,3252.3466796875,1211.7215576171875
6218.490560235,3247.65673828125,1212.4542236328125
6218.523629696,3242.98046875,1208.05859375
6218.524364415,3242.98046875,1209.5238037109375
6218.557083987,3242.98046875,1210.989013671875
6218.589378429,3238.31787109375,1210.989013671875
6218.590557515,3233.66845703125,1212.4542236328125
6218.623283783,3233.66845703125,1216.1171875
6218.624455155,3229.0322265625,1218.3150634765625
6218.657135297,3229.0322265625,1218.3150634765625
6218.658190503,3229.0322265625,1217.5823974609375
6218.699419303,3215.203369140625,1217.5823974609375
6218.700605845,3210.6201171875,1226.3736572265625
6218.733394956,3169.95068359375,1228.5714111328125
6218.76705117,3139.0244140625,1247.6190185546875
6218.768058498,3134.655517578125,1266.6666259765625
6218.800634779,3121.62158203125,1279.120849609375
6218.801791557,3108.695556640625,1288.6446533203125
6218.834444664,3095.876220703125,1301.83154296875
6218.866940294,3087.388671875,1151.6483154296875
6218.86806028,3078.947265625,1081.3187255859375
6218.901900596,3074.744140625,1051.2821044921875
6218.906833418,3074.744140625,1040.2930908203125
6218.939462469,3070.55224609375,1035.164794921875
6218.998155855,3078.947265625,1030.03662109375
6218.999268342,3104.41064453125,1026.3736572265625
6219.000535706,3178.899169921875,1017.5823974609375
6219.001787465,3210.6201171875,1145.054931640625
6219.056893094,3215.203369140625,1189.010986328125
6219.058073765,3215.203369140625,1212.4542236328125
6219.090595085,3210.6201171875,1222.7105712890625
6219.091810142,3210.6201171875,1227.106201171875
6219.124529175,3201.492431640625,1229.3040771484375
6219.125638712,3206.0498046875,1234.4322509765625
6219.158162148,3201.492431640625,1235.8974609375
